18:02:00.002099, 380.1625, 4173
18:02:00.002196, 380.165, 4089
18:02:00.002221, 380.1675, 4178
18:02:00.002241, 380.17, 4170
18:02:00.014597, 380.1725, 4191
18:02:00.014689, 380.175, 4133
18:02:00.014743, 380.1775, 4178
18:02:00.014789, 380.18, 4174
18:02:00.014835, 380.1825, 4096
18:02:00.016085, 380.185, 4184
18:02:00.016255, 380.1875, 4180
18:02:00.016272, 380.19, 4156
18:02:00.049512, 380.1925, 4152
18:02:00.049600, 380.195, 4171
18:02:00.049641, 380.1975, 4180
18:02:00.049663, 380.2, 4082
18:02:00.050458, 380.2025, 4177
18:02:00.050512, 380.205, 4162
18:02:00.050531, 380.2075, 4167
18:02:00.050549, 380.21, 4153
18:02:00.050567, 380.2125, 4186
18:02:00.051878, 380.215, 4174
18:02:00.051955, 380.2175, 4077
18:02:00.051977, 380.22, 4153
18:02:00.052013, 380.2225, 4156
18:02:00.052614, 380.225, 4174
18:02:00.052638, 380.2275, 4158
18:02:00.052655, 380.23, 4179
18:02:00.070121, 380.2325, 4151
18:02:00.070187, 380.235, 4046
18:02:00.070212, 380.2375, 4163
18:02:00.070233, 380.24, 4148
18:02:00.070254, 380.2425, 4139
18:02:00.093870, 380.245, 4148
18:02:00.093928, 380.2475, 4171
18:02:00.093952, 380.25, 4187
18:02:00.093972, 380.2525, 4083
18:02:00.094342, 380.255, 4183
18:02:00.094370, 380.2575, 4165
18:02:00.094386, 380.26, 4170
18:02:00.094401, 380.2625, 4144
18:02:00.094661, 380.265, 4161
18:02:00.094681, 380.2675, 4149
18:02:00.094696, 380.27, 4069
18:02:00.094710, 380.2725, 4150
18:02:00.100316, 380.275, 4154
18:02:00.100380, 380.2775, 4142
18:02:00.100410, 380.28, 4129
18:02:00.100435, 380.2825, 4145
18:02:00.128297, 380.285, 4166
18:02:00.128358, 380.2875, 4057
18:02:00.128406, 380.29, 4163
18:02:00.128433, 380.2925, 4164
18:02:00.128779, 380.295, 4146
18:02:00.128805, 380.2975, 4170
18:02:00.128820, 380.3, 4160
18:02:00.128835, 380.3025, 4161
18:02:00.128849, 380.305, 4079
18:02:00.152085, 380.3075, 4167
18:02:00.152193, 380.31, 4187
18:02:00.152232, 380.3125, 4176
18:02:00.152264, 380.315, 4143
18:02:00.154241, 380.3175, 4198
18:02:00.154290, 380.32, 4186
18:02:00.154314, 380.3225, 4080
18:02:00.154338, 380.325, 4205
18:02:00.155547, 380.3275, 4185
18:02:00.155589, 380.33, 4201
18:02:00.155617, 380.3325, 4178
18:02:00.155644, 380.335, 4168
18:02:00.160897, 380.3375, 4160
18:02:00.160944, 380.34, 4080
18:02:00.160968, 380.3425, 4179
18:02:00.160991, 380.345, 4171
18:02:00.190607, 380.3475, 4167
18:02:00.190686, 380.35, 4156
18:02:00.190712, 380.3525, 4189
18:02:00.190764, 380.355, 4148
18:02:00.198602, 380.3575, 4085
18:02:00.198694, 380.36, 4166
18:02:00.198749, 380.3625, 4155
18:02:00.198800, 380.365, 4160
18:02:00.199767, 380.3675, 4131
18:02:00.199827, 380.37, 4145
18:02:00.199849, 380.3725, 4157
18:02:00.199867, 380.375, 4060
18:02:00.218518, 380.3775, 4167
18:02:00.218637, 380.38, 4127
18:02:00.218663, 380.3825, 4136
18:02:00.218684, 380.385, 4070
18:02:00.219081, 380.3875, 4151
18:02:00.219112, 380.39, 4154
18:02:00.219127, 380.3925, 4089
18:02:00.219141, 380.395, 4162
18:02:00.221773, 380.3975, 4162
18:02:00.221810, 380.4, 4133
18:02:00.221828, 380.4025, 4117
18:02:00.221843, 380.405, 4138
18:02:00.221863, 380.4075, 4131
18:02:00.256725, 380.41, 4024
18:02:00.256797, 380.4125, 4113
18:02:00.256821, 380.415, 4132
18:02:00.256842, 380.4175, 4113
18:02:00.257214, 380.42, 4120
18:02:00.257241, 380.4225, 4122
18:02:00.257257, 380.425, 4131
18:02:00.257272, 380.4275, 4056
18:02:00.257542, 380.43, 4122
18:02:00.257562, 380.4325, 4120
18:02:00.257578, 380.435, 4117
18:02:00.257592, 380.4375, 4106
18:02:00.266173, 380.44, 4146
18:02:00.266252, 380.4425, 4155
18:02:00.266287, 380.445, 4066
18:02:00.266301, 380.4475, 4147
18:02:00.289981, 380.45, 4172
18:02:00.290071, 380.4525, 4176
18:02:00.290128, 380.455, 4137
18:02:00.290218, 380.4575, 4179
18:02:00.292640, 380.46, 4159
18:02:00.292730, 380.4625, 4072
18:02:00.292804, 380.465, 4144
18:02:00.292872, 380.4675, 4147
18:02:00.319470, 380.47, 4158
18:02:00.319561, 380.4725, 4134
18:02:00.319626, 380.475, 4169
18:02:00.319665, 380.4775, 4162
18:02:00.319692, 380.48, 4078
18:02:00.320335, 380.4825, 4182
18:02:00.320374, 380.485, 4191
18:02:00.320394, 380.4875, 4174
18:02:00.320736, 380.49, 4143
18:02:00.320765, 380.4925, 4156
18:02:00.320784, 380.495, 4179
18:02:00.320803, 380.4975, 4107
18:02:00.327170, 380.5, 4182
18:02:00.327226, 380.5025, 4204
18:02:00.327256, 380.505, 4204
18:02:00.327285, 380.5075, 4162
18:02:00.327315, 380.51, 4192
18:02:00.337510, 380.5125, 4196
18:02:00.337627, 380.515, 4089
18:02:00.337663, 380.5175, 4174
18:02:00.337694, 380.52, 4174
18:02:00.367794, 380.5225, 4180
18:02:00.367852, 380.525, 4155
18:02:00.367882, 380.5275, 4171
18:02:00.367902, 380.53, 4183
18:02:00.369177, 380.5325, 4098
18:02:00.369343, 380.535, 4186
18:02:00.369369, 380.5375, 4193
18:02:00.369433, 380.54, 4172
18:02:00.391609, 380.5425, 4162
18:02:00.391698, 380.545, 4175
18:02:00.391760, 380.5475, 4161
18:02:00.391782, 380.55, 4054
18:02:00.392620, 380.5525, 4156
18:02:00.392652, 380.555, 4147
18:02:00.392670, 380.5575, 4153
18:02:00.392726, 380.56, 4144
18:02:00.393954, 380.5625, 4171
18:02:00.393991, 380.565, 4161
18:02:00.394031, 380.5675, 4083
18:02:00.394079, 380.57, 4179
18:02:00.394121, 380.5725, 4130
18:02:00.412057, 380.575, 4114
18:02:00.412183, 380.5775, 4075
18:02:00.412241, 380.58, 4064
18:02:00.412296, 380.5825, 4037
18:02:00.414614, 380.585, 3949
18:02:00.414677, 380.5875, 4051
18:02:00.414716, 380.59, 4077
18:02:00.414753, 380.5925, 4111
18:02:00.436576, 380.595, 4115
18:02:00.436808, 380.5975, 4138
18:02:00.436878, 380.6, 4159
18:02:00.436910, 380.6025, 4081
18:02:00.437358, 380.605, 4187
18:02:00.437402, 380.6075, 4170
18:02:00.437426, 380.61, 4180
18:02:00.437448, 380.6125, 4175
18:02:00.440718, 380.615, 4226
18:02:00.440752, 380.6175, 4209
18:02:00.440768, 380.62, 4128
18:02:00.440782, 380.6225, 4223
18:02:00.449909, 380.625, 4210
18:02:00.450005, 380.6275, 4191
18:02:00.450062, 380.63, 4179
18:02:00.450114, 380.6325, 4190
18:02:00.470628, 380.635, 4199
18:02:00.470757, 380.6375, 4113
18:02:00.470785, 380.64, 4199
18:02:00.470832, 380.6425, 4192
18:02:00.470910, 380.645, 4176
18:02:00.475857, 380.6475, 4170
18:02:00.475905, 380.65, 4187
18:02:00.475931, 380.6525, 4179
18:02:00.475955, 380.655, 4091
18:02:00.485088, 380.6575, 4200
18:02:00.485141, 380.66, 4193
18:02:00.485170, 380.6625, 4193
18:02:00.485195, 380.665, 4148
18:02:00.507738, 380.6675, 4178
18:02:00.507800, 380.67, 4186
18:02:00.507825, 380.6725, 4083
18:02:00.507846, 380.675, 4173
18:02:00.508215, 380.6775, 4202
18:02:00.508242, 380.68, 4238
18:02:00.508258, 380.6825, 4349
18:02:00.508273, 380.685, 4411
18:02:00.511250, 380.6875, 4408
18:02:00.511321, 380.69, 4375
18:02:00.511367, 380.6925, 4492
18:02:00.511408, 380.695, 4450
18:02:00.539310, 380.6975, 4285
18:02:00.539418, 380.7, 4060
18:02:00.539464, 380.7025, 3839
18:02:00.539533, 380.705, 3482
18:02:00.539574, 380.7075, 3110
18:02:00.540228, 380.71, 2771
18:02:00.540270, 380.7125, 2271
18:02:00.540299, 380.715, 1830
18:02:00.546051, 380.7175, 1618
18:02:00.546110, 380.72, 1681
18:02:00.546146, 380.7225, 1958
18:02:00.546180, 380.725, 2590
18:02:00.570464, 380.7275, 3563
18:02:00.570582, 380.73, 4351
18:02:00.570614, 380.7325, 4800
18:02:00.570641, 380.735, 4936
18:02:00.570676, 380.7375, 4910
18:02:00.574079, 380.74, 4757
18:02:00.574128, 380.7425, 4517
18:02:00.574151, 380.745, 4530
18:02:00.574171, 380.7475, 4522
18:02:00.575609, 380.75, 4491
18:02:00.575656, 380.7525, 4462
18:02:00.575689, 380.755, 4504
18:02:00.605653, 380.7575, 4533
18:02:00.605723, 380.76, 4444
18:02:00.605748, 380.7625, 4569
18:02:00.605769, 380.765, 4580
18:02:00.605819, 380.7675, 4547
18:02:00.606140, 380.77, 4541
18:02:00.606163, 380.7725, 4541
18:02:00.606178, 380.775, 4502
18:02:00.606194, 380.7775, 4397
18:02:00.606829, 380.78, 4484
18:02:00.606866, 380.7825, 4468
18:02:00.606883, 380.785, 4456
18:02:00.606911, 380.7875, 4433
18:02:00.616419, 380.79, 4443
18:02:00.616517, 380.7925, 4443
18:02:00.616574, 380.795, 4338
18:02:00.616669, 380.7975, 4432
18:02:00.639061, 380.8, 4412
18:02:00.639160, 380.8025, 4394
18:02:00.639184, 380.805, 4365
18:02:00.639205, 380.8075, 4376
18:02:00.639226, 380.81, 4363
18:02:00.641833, 380.8125, 4265
18:02:00.641861, 380.815, 4384
18:02:00.641876, 380.8175, 4371
18:02:00.641890, 380.82, 4343
18:02:00.651104, 380.8225, 4339
18:02:00.651165, 380.825, 4334
18:02:00.651202, 380.8275, 4336
18:02:00.651236, 380.83, 4211
18:02:00.675078, 380.8325, 4294
18:02:00.675171, 380.835, 4273
18:02:00.675197, 380.8375, 4285
18:02:00.675228, 380.84, 4255
18:02:00.675554, 380.8425, 4280
18:02:00.675580, 380.845, 4250
18:02:00.675596, 380.8475, 4152
18:02:00.675638, 380.85, 4272
18:02:00.676980, 380.8525, 4243
18:02:00.677016, 380.855, 4243
18:02:00.677034, 380.8575, 4234
18:02:00.677049, 380.86, 4227
18:02:00.708053, 380.8625, 4235
18:02:00.708148, 380.865, 4146
18:02:00.708175, 380.8675, 4230
18:02:00.708315, 380.87, 4239
18:02:00.708703, 380.8725, 4229
18:02:00.708736, 380.875, 4205
18:02:00.708755, 380.8775, 4232
18:02:00.708771, 380.88, 4227
18:02:00.708786, 380.8825, 4126
18:02:00.711845, 380.885, 4212
18:02:00.711876, 380.8875, 4215
18:02:00.711892, 380.89, 4198
18:02:00.711907, 380.8925, 4203
18:02:00.721927, 380.895, 4228
18:02:00.722025, 380.8975, 4224
18:02:00.722058, 380.9, 4120
18:02:00.722090, 380.9025, 4217
18:02:00.739796, 380.905, 4211
18:02:00.739874, 380.9075, 4210
18:02:00.739907, 380.91, 4199
18:02:00.739935, 380.9125, 4195
18:02:00.740466, 380.915, 4209
18:02:00.740498, 380.9175, 4122
18:02:00.740520, 380.92, 4226
18:02:00.740542, 380.9225, 4203
18:02:00.771536, 380.925, 4210
18:02:00.771621, 380.9275, 4205
18:02:00.771646, 380.93, 4221
18:02:00.771666, 380.9325, 4226
18:02:00.771687, 380.935, 4147
18:02:00.772043, 380.9375, 4208
18:02:00.772077, 380.94, 4206
18:02:00.772092, 380.9425, 4194
18:02:00.772107, 380.945, 4191
18:02:00.772957, 380.9475, 4199
18:02:00.772987, 380.95, 4196
18:02:00.773002, 380.9525, 4112
18:02:00.773017, 380.955, 4201
18:02:00.782659, 380.9575, 4190
18:02:00.782731, 380.96, 4208
18:02:00.782789, 380.9625, 4186
18:02:00.782862, 380.965, 4190
18:02:00.806971, 380.9675, 4179
18:02:00.807033, 380.97, 4102
18:02:00.807055, 380.9725, 4205
18:02:00.807075, 380.975, 4184
18:02:00.807997, 380.9775, 4162
18:02:00.808028, 380.98, 4163
18:02:00.808043, 380.9825, 4184
18:02:00.808058, 380.985, 4166
18:02:00.817305, 380.9875, 4078
18:02:00.817380, 380.99, 4172
18:02:00.817425, 380.9925, 4151
18:02:00.817466, 380.995, 4134
18:02:00.842861, 380.9975, 4130
18:02:00.842922, 381.0, 4144
18:02:00.842945, 381.0025, 4095
18:02:00.842964, 381.005, 4026
18:02:00.843288, 381.0075, 4113
18:02:00.843308, 381.01, 4102
18:02:00.843324, 381.0125, 4083
18:02:00.843338, 381.015, 4067
18:02:00.843588, 381.0175, 4097
18:02:00.843607, 381.02, 4098
18:02:00.843622, 381.0225, 4031
18:02:00.843636, 381.025, 4116
18:02:00.843650, 381.0275, 4102
18:02:00.852131, 381.03, 4118
18:02:00.852189, 381.0325, 4114
18:02:00.852225, 381.035, 4136
18:02:00.852257, 381.0375, 4140
18:02:00.876674, 381.04, 4054
18:02:00.876746, 381.0425, 4180
18:02:00.876772, 381.045, 4187
18:02:00.876793, 381.0475, 4182
18:02:00.877963, 381.05, 4186
18:02:00.877989, 381.0525, 4226
18:02:00.878006, 381.055, 4223
18:02:00.878021, 381.0575, 4142
18:02:00.887652, 381.06, 4235
18:02:00.887711, 381.0625, 4239
18:02:00.887812, 381.065, 4223
18:02:00.887932, 381.0675, 4193
18:02:00.908756, 381.07, 4220
18:02:00.908840, 381.0725, 4238
18:02:00.908874, 381.075, 4159
18:02:00.908901, 381.0775, 4235
18:02:00.909383, 381.08, 4247
18:02:00.909413, 381.0825, 4224
18:02:00.909435, 381.085, 4215
18:02:00.909455, 381.0875, 4238
18:02:00.913754, 381.09, 4239
18:02:00.913849, 381.0925, 4150
18:02:00.913903, 381.095, 4228
18:02:00.913954, 381.0975, 4218
18:02:00.940651, 381.1, 4231
18:02:00.940736, 381.1025, 4228
18:02:00.940761, 381.105, 4242
18:02:00.940780, 381.1075, 4231
18:02:00.940801, 381.11, 4161
18:02:00.941107, 381.1125, 4223
18:02:00.941128, 381.115, 4212
18:02:00.941144, 381.1175, 4205
18:02:00.948495, 381.12, 4202
18:02:00.948580, 381.1225, 4216
18:02:00.948632, 381.125, 4228
18:02:00.948679, 381.1275, 4120
18:02:00.958234, 381.13, 4205
18:02:00.958321, 381.1325, 4190
18:02:00.958352, 381.135, 4197
18:02:00.958378, 381.1375, 4179
18:02:00.977542, 381.14, 4210
18:02:00.977606, 381.1425, 4209
18:02:00.977635, 381.145, 4089
18:02:00.977661, 381.1475, 4204
18:02:00.984513, 381.15, 4185
18:02:00.984623, 381.1525, 4175
18:02:00.984682, 381.155, 4185
18:02:00.984734, 381.1575, 4218
18:02:01.007990, 381.16, 4195
18:02:01.008047, 381.1625, 4094
18:02:01.008070, 381.165, 4158
18:02:01.008122, 381.1675, 4162
18:02:01.008144, 381.17, 4164
18:02:01.008477, 381.1725, 4172
18:02:01.008498, 381.175, 4191
18:02:01.008540, 381.1775, 4181
18:02:01.008557, 381.18, 4088
18:02:01.009321, 381.1825, 4177
18:02:01.009342, 381.185, 4183
18:02:01.009357, 381.1875, 4169
18:02:01.009371, 381.19, 4149
18:02:01.018074, 381.1925, 4190
18:02:01.018116, 381.195, 4174
18:02:01.018141, 381.1975, 4103
18:02:01.018164, 381.2, 4173
18:02:01.039688, 381.2025, 4165
18:02:01.039816, 381.205, 4160
18:02:01.039948, 381.2075, 4170
18:02:01.040037, 381.21, 4187
18:02:01.044586, 381.2125, 4190
18:02:01.044660, 381.215, 4083
18:02:01.044694, 381.2175, 4189
18:02:01.044723, 381.22, 4195
18:02:01.044751, 381.2225, 4175
18:02:01.052949, 381.225, 4176
18:02:01.052973, 381.2275, 4171
18:02:01.052988, 381.23, 4178
18:02:01.053001, 381.2325, 4085
18:02:01.074109, 381.235, 4186
18:02:01.074178, 381.2375, 4186
18:02:01.074229, 381.24, 4174
18:02:01.074252, 381.2425, 4166
18:02:01.074610, 381.245, 4188
18:02:01.074639, 381.2475, 4183
18:02:01.074655, 381.25, 4080
18:02:01.074671, 381.2525, 4180
18:02:01.079413, 381.255, 4208
18:02:01.079461, 381.2575, 4194
18:02:01.079490, 381.26, 4172
18:02:01.079517, 381.2625, 4181
18:02:01.108206, 381.265, 4179
18:02:01.108311, 381.2675, 4079
18:02:01.108366, 381.27, 4166
18:02:01.108413, 381.2725, 4173
18:02:01.109179, 381.275, 4170
18:02:01.109235, 381.2775, 4169
18:02:01.109273, 381.28, 4185
18:02:01.109311, 381.2825, 4169
18:02:01.109349, 381.285, 4078
18:02:01.114658, 381.2875, 4183
18:02:01.114712, 381.29, 4176
18:02:01.114751, 381.2925, 4184
18:02:01.139645, 381.295, 4157
18:02:01.139743, 381.2975, 4190
18:02:01.139769, 381.3, 4186
18:02:01.139791, 381.3025, 4078
18:02:01.139815, 381.305, 4186
18:02:01.140197, 381.3075, 4179
18:02:01.140237, 381.31, 4175
18:02:01.140253, 381.3125, 4139
18:02:01.149232, 381.315, 4151
18:02:01.149276, 381.3175, 4174
18:02:01.149293, 381.32, 4083
18:02:01.149309, 381.3225, 4178
18:02:01.149323, 381.325, 4176
18:02:01.173658, 381.3275, 4169
18:02:01.173747, 381.33, 4138
18:02:01.173769, 381.3325, 4169
18:02:01.173786, 381.335, 4168
18:02:01.174421, 381.3375, 4101
18:02:01.174473, 381.34, 4188
18:02:01.174497, 381.3425, 4172
18:02:01.174517, 381.345, 4180
18:02:01.175832, 381.3475, 4160
18:02:01.175875, 381.35, 4188
18:02:01.175896, 381.3525, 4196
18:02:01.175916, 381.355, 4124
18:02:01.206779, 381.3575, 4199
18:02:01.206936, 381.36, 4207
18:02:01.206976, 381.3625, 4183
18:02:01.207005, 381.365, 4154
18:02:01.207577, 381.3675, 4213
18:02:01.207629, 381.37, 4183
18:02:01.207654, 381.3725, 4154
18:02:01.207677, 381.375, 4209
18:02:01.207700, 381.3775, 4190
18:02:01.208112, 381.38, 4175
18:02:01.208149, 381.3825, 4110
18:02:01.208174, 381.385, 4179
18:02:01.208198, 381.3875, 4193
18:02:01.219320, 381.39, 4094
18:02:01.219353, 381.3925, 4200
18:02:01.219368, 381.395, 4185
18:02:01.219382, 381.3975, 4184
18:02:01.240228, 381.4, 4149
18:02:01.240321, 381.4025, 4148
18:02:01.240348, 381.405, 4173
18:02:01.240392, 381.4075, 4072
18:02:01.240721, 381.41, 4179
18:02:01.240751, 381.4125, 4181
18:02:01.240767, 381.415, 4186
18:02:01.240783, 381.4175, 4163
18:02:01.246057, 381.42, 4209
18:02:01.246145, 381.4225, 4192
18:02:01.246188, 381.425, 4094
18:02:01.246229, 381.4275, 4169
18:02:01.254729, 381.43, 4182
18:02:01.254855, 381.4325, 4158
18:02:01.254894, 381.435, 4144
18:02:01.254932, 381.4375, 4176
18:02:01.276241, 381.44, 4163
18:02:01.276317, 381.4425, 4075
18:02:01.276361, 381.445, 4195
18:02:01.276389, 381.4475, 4178
18:02:01.281232, 381.45, 4176
18:02:01.281284, 381.4525, 4154
18:02:01.281317, 381.455, 4186
18:02:01.281347, 381.4575, 4192
18:02:01.290245, 381.46, 4094
18:02:01.290402, 381.4625, 4159
18:02:01.290449, 381.465, 4151
18:02:01.290504, 381.4675, 4155
18:02:01.310993, 381.47, 4113
18:02:01.311083, 381.4725, 4159
18:02:01.311157, 381.475, 4143
18:02:01.311202, 381.4775, 4080
18:02:01.311818, 381.48, 4154
18:02:01.311863, 381.4825, 4152
18:02:01.311894, 381.485, 4141
18:02:01.311924, 381.4875, 4104
18:02:01.315707, 381.49, 4138
18:02:01.315734, 381.4925, 4146
18:02:01.315750, 381.495, 4052
18:02:01.315765, 381.4975, 4150
18:02:01.343122, 381.5, 4156
18:02:01.343227, 381.5025, 4157
18:02:01.343286, 381.505, 4140
18:02:01.343387, 381.5075, 4176
18:02:01.343465, 381.51, 4149
18:02:01.344152, 381.5125, 4059
18:02:01.344203, 381.515, 4149
18:02:01.344234, 381.5175, 4133
18:02:01.344262, 381.52, 4137
18:02:01.350987, 381.5225, 4149
18:02:01.351011, 381.525, 4155
18:02:01.351026, 381.5275, 4150
18:02:01.351041, 381.53, 4061
18:02:01.381072, 381.5325, 4157
18:02:01.381190, 381.535, 4162
18:02:01.381239, 381.5375, 4140
18:02:01.381282, 381.54, 4115
18:02:01.381959, 381.5425, 4144
18:02:01.382013, 381.545, 4132
18:02:01.382048, 381.5475, 4049
18:02:01.382080, 381.55, 4164
18:02:01.382638, 381.5525, 4179
18:02:01.382680, 381.555, 4150
18:02:01.382714, 381.5575, 4164
18:02:01.382744, 381.56, 4177
18:02:01.414474, 381.5625, 4178
18:02:01.414577, 381.565, 4089
18:02:01.414616, 381.5675, 4176
18:02:01.414645, 381.57, 4175
18:02:01.415264, 381.5725, 4190
18:02:01.415305, 381.575, 4165
18:02:01.415332, 381.5775, 4178
18:02:01.415358, 381.58, 4180
18:02:01.415384, 381.5825, 4072
18:02:01.415904, 381.585, 4161
18:02:01.415941, 381.5875, 4155
18:02:01.415968, 381.59, 4168
18:02:01.415994, 381.5925, 4155
18:02:01.421238, 381.595, 4184
18:02:01.421354, 381.5975, 4169
18:02:01.421415, 381.6, 4077
18:02:01.421469, 381.6025, 4142
18:02:01.444404, 381.605, 4172
18:02:01.444475, 381.6075, 4139
18:02:01.444538, 381.61, 4134
18:02:01.444560, 381.6125, 4170
18:02:01.444871, 381.615, 4140
18:02:01.444893, 381.6175, 4050
18:02:01.444908, 381.62, 4132
18:02:01.444922, 381.6225, 4136
18:02:01.457353, 381.625, 4152
18:02:01.457423, 381.6275, 4128
18:02:01.457482, 381.63, 4157
18:02:01.457519, 381.6325, 4143
18:02:01.479806, 381.635, 4075
18:02:01.479909, 381.6375, 4154
18:02:01.479948, 381.64, 4165
18:02:01.479979, 381.6425, 4154
18:02:01.480570, 381.645, 4123
18:02:01.480610, 381.6475, 4151
18:02:01.480638, 381.65, 4159
18:02:01.480665, 381.6525, 4063
18:02:01.482042, 381.655, 4160
18:02:01.482083, 381.6575, 4130
18:02:01.482112, 381.66, 4110
18:02:01.482139, 381.6625, 4102
18:02:01.491186, 381.665, 4135
18:02:01.491277, 381.6675, 4140
18:02:01.491298, 381.67, 4038
18:02:01.491314, 381.6725, 4128
18:02:01.491336, 381.675, 4129
18:02:01.514173, 381.6775, 4141
18:02:01.514257, 381.68, 4117
18:02:01.514291, 381.6825, 4156
18:02:01.514343, 381.685, 4128
18:02:01.517330, 381.6875, 4061
18:02:01.517400, 381.69, 4172
18:02:01.517444, 381.6925, 4167
18:02:01.517485, 381.695, 4130
18:02:01.542883, 381.6975, 4093
18:02:01.542996, 381.7, 4065
18:02:01.543063, 381.7025, 4054
18:02:01.543106, 381.705, 3971
18:02:01.543748, 381.7075, 4074
18:02:01.543807, 381.71, 4093
18:02:01.543839, 381.7125, 4088
18:02:01.543867, 381.715, 4087
18:02:01.544364, 381.7175, 4146
18:02:01.544407, 381.72, 4158
18:02:01.544437, 381.7225, 4060
18:02:01.544465, 381.725, 4149
18:02:01.552184, 381.7275, 4156
18:02:01.552250, 381.73, 4176
18:02:01.552287, 381.7325, 4176
18:02:01.552321, 381.735, 4197
18:02:01.575625, 381.7375, 4194
18:02:01.575718, 381.74, 4107
18:02:01.575740, 381.7425, 4191
18:02:01.575759, 381.745, 4174
18:02:01.577989, 381.7475, 4188
18:02:01.578029, 381.75, 4181
18:02:01.578045, 381.7525, 4205
18:02:01.578061, 381.755, 4186
18:02:01.578076, 381.7575, 4118
18:02:01.587430, 381.76, 4199
18:02:01.587485, 381.7625, 4201
18:02:01.587522, 381.765, 4200
18:02:01.587556, 381.7675, 4195
18:02:01.610017, 381.77, 4200
18:02:01.610126, 381.7725, 4194
18:02:01.610152, 381.775, 4118
18:02:01.610174, 381.7775, 4199
18:02:01.610579, 381.78, 4183
18:02:01.610616, 381.7825, 4172
18:02:01.610632, 381.785, 4156
18:02:01.610648, 381.7875, 4197
18:02:01.613178, 381.79, 4194
18:02:01.613228, 381.7925, 4117
18:02:01.613257, 381.795, 4214
18:02:01.613284, 381.7975, 4255
18:02:01.645674, 381.8, 4313
18:02:01.645828, 381.8025, 4367
18:02:01.645882, 381.805, 4417
18:02:01.645944, 381.8075, 4470
18:02:01.646699, 381.81, 4414
18:02:01.646746, 381.8125, 4465
18:02:01.646784, 381.815, 4333
18:02:01.646810, 381.8175, 4151
18:02:01.648546, 381.82, 3903
18:02:01.648601, 381.8225, 3671
18:02:01.648647, 381.825, 3369
18:02:01.648691, 381.8275, 2970
18:02:01.657321, 381.83, 2614
18:02:01.657369, 381.8325, 2113
18:02:01.657445, 381.835, 1856
18:02:01.657519, 381.8375, 1715
18:02:01.657571, 381.84, 1885
18:02:01.678869, 381.8425, 2276
18:02:01.678954, 381.845, 2931
18:02:01.679020, 381.8475, 3999
18:02:01.679084, 381.85, 4749
18:02:01.683501, 381.8525, 5043
18:02:01.683563, 381.855, 5109
18:02:01.683610, 381.8575, 5064
18:02:01.683653, 381.86, 4880
18:02:01.692103, 381.8625, 4674
18:02:01.692203, 381.865, 4632
18:02:01.692227, 381.8675, 4571
18:02:01.692243, 381.87, 4528
18:02:01.711347, 381.8725, 4472
18:02:01.711443, 381.875, 4488
18:02:01.711502, 381.8775, 4490
18:02:01.711550, 381.88, 4402
18:02:01.712302, 381.8825, 4498
18:02:01.712359, 381.885, 4504
18:02:01.712400, 381.8875, 4501
18:02:01.712440, 381.89, 4479
18:02:01.718942, 381.8925, 4478
18:02:01.719043, 381.895, 4467
18:02:01.719122, 381.8975, 4364
18:02:01.719200, 381.9, 4446
18:02:01.742685, 381.9025, 4448
18:02:01.742832, 381.905, 4429
18:02:01.742877, 381.9075, 4396
18:02:01.742914, 381.91, 4420
18:02:01.746713, 381.9125, 4394
18:02:01.746759, 381.915, 4281
18:02:01.746780, 381.9175, 4387
18:02:01.746799, 381.92, 4385
18:02:01.753243, 381.9225, 4359
18:02:01.753306, 381.925, 4340
18:02:01.753338, 381.9275, 4344
18:02:01.753367, 381.93, 4352
18:02:01.753395, 381.9325, 4272
18:02:01.776307, 381.935, 4355
18:02:01.776390, 381.9375, 4350
18:02:01.776414, 381.94, 4338
18:02:01.776447, 381.9425, 4304
18:02:01.776817, 381.945, 4326
18:02:01.776848, 381.9475, 4338
18:02:01.776864, 381.95, 4232
18:02:01.776878, 381.9525, 4308
18:02:01.779204, 381.955, 4300
18:02:01.779238, 381.9575, 4298
18:02:01.779254, 381.96, 4205
18:02:01.779269, 381.9625, 4297
18:02:01.788344, 381.965, 4285
18:02:01.788388, 381.9675, 4202
18:02:01.788404, 381.97, 4278
18:02:01.788419, 381.9725, 4265
18:02:01.812481, 381.975, 4275
18:02:01.812555, 381.9775, 4249
18:02:01.812647, 381.98, 4258
18:02:01.812706, 381.9825, 4239
18:02:01.814341, 381.985, 4189
18:02:01.814370, 381.9875, 4264
18:02:01.814390, 381.99, 4268
18:02:01.814409, 381.9925, 4235
18:02:01.847687, 381.995, 4227
18:02:01.847760, 381.9975, 4239
18:02:01.847783, 382.0, 4197
18:02:01.847804, 382.0025, 4126
18:02:01.848147, 382.005, 4233
18:02:01.848170, 382.0075, 4197
18:02:01.848185, 382.01, 4200
18:02:01.848199, 382.0125, 4178
18:02:01.848450, 382.015, 4216
18:02:01.848469, 382.0175, 4208
18:02:01.848483, 382.02, 4122
18:02:01.848498, 382.0225, 4209
18:02:01.849330, 382.025, 4223
18:02:01.849349, 382.0275, 4232
18:02:01.849364, 382.03, 4212
18:02:01.849378, 382.0325, 4230
18:02:01.849392, 382.035, 4235
18:02:01.880609, 382.0375, 4151
18:02:01.880670, 382.04, 4231
18:02:01.880692, 382.0425, 4219
18:02:01.880711, 382.045, 4218
18:02:01.881050, 382.0475, 4209
18:02:01.881071, 382.05, 4211
18:02:01.881086, 382.0525, 4200
18:02:01.881100, 382.055, 4124
18:02:01.884814, 382.0575, 4201
18:02:01.884895, 382.06, 4185
18:02:01.884940, 382.0625, 4183
18:02:01.884980, 382.065, 4165
18:02:01.893267, 382.0675, 4174
18:02:01.893340, 382.07, 4184
18:02:01.893361, 382.0725, 4101
18:02:01.893380, 382.075, 4175
18:02:01.913259, 382.0775, 4196
18:02:01.913314, 382.08, 4175
18:02:01.913366, 382.0825, 4144
18:02:01.913389, 382.085, 4170
18:02:01.913949, 382.0875, 4176
18:02:01.913971, 382.09, 4123
18:02:01.913986, 382.0925, 4131
18:02:01.914001, 382.095, 4146
18:02:01.946253, 382.0975, 4121
18:02:01.946311, 382.1, 4065
18:02:01.946333, 382.1025, 4163
18:02:01.946354, 382.105, 4149
18:02:01.946702, 382.1075, 4080
18:02:01.946724, 382.11, 4171
18:02:01.946740, 382.1125, 4174
18:02:01.946755, 382.115, 4160
18:02:01.947022, 382.1175, 4138
18:02:01.947042, 382.12, 4149
18:02:01.947057, 382.1225, 4155
18:02:01.947072, 382.125, 4063
18:02:01.947087, 382.1275, 4153
18:02:01.955006, 382.13, 4161
18:02:01.955096, 382.1325, 4129
18:02:01.955163, 382.135, 4131
18:02:01.978765, 382.1375, 4154
18:02:01.978912, 382.14, 4152
18:02:01.978960, 382.1425, 4083
18:02:01.978989, 382.145, 4163
18:02:01.979018, 382.1475, 4175
18:02:01.980786, 382.15, 4166
18:02:01.980827, 382.1525, 4152
18:02:01.980848, 382.155, 4197
18:02:01.980868, 382.1575, 4200
18:02:02.011341, 382.16, 4126
18:02:02.011491, 382.1625, 4229
18:02:02.011532, 382.165, 4206
18:02:02.011594, 382.1675, 4226
18:02:02.012101, 382.17, 4221
18:02:02.012149, 382.1725, 4264
18:02:02.012175, 382.175, 4264
18:02:02.012198, 382.1775, 4166
18:02:02.012599, 382.18, 4259
18:02:02.012635, 382.1825, 4265
18:02:02.012658, 382.185, 4275
18:02:02.012680, 382.1875, 4198
18:02:02.015956, 382.19, 4300
18:02:02.016013, 382.1925, 4282
18:02:02.016045, 382.195, 4219
18:02:02.016073, 382.1975, 4309
18:02:02.045000, 382.2, 4302
18:02:02.045085, 382.2025, 4279
18:02:02.045114, 382.205, 4233
18:02:02.045140, 382.2075, 4295
18:02:02.045715, 382.21, 4272
18:02:02.045757, 382.2125, 4172
18:02:02.045777, 382.215, 4255
18:02:02.045795, 382.2175, 4254
18:02:02.045814, 382.22, 4228
18:02:02.050826, 382.2225, 4216
18:02:02.050886, 382.225, 4241
18:02:02.050911, 382.2275, 4240
18:02:02.050933, 382.23, 4167
18:02:02.060259, 382.2325, 4243
18:02:02.060338, 382.235, 4242
18:02:02.060360, 382.2375, 4226
18:02:02.060380, 382.24, 4212
18:02:02.080169, 382.2425, 4236
18:02:02.080271, 382.245, 4237
18:02:02.080298, 382.2475, 4144
18:02:02.080318, 382.25, 4210
18:02:02.080641, 382.2525, 4179
18:02:02.080664, 382.255, 4194
18:02:02.080679, 382.2575, 4190
18:02:02.080694, 382.26, 4213
18:02:02.086506, 382.2625, 4211
18:02:02.086617, 382.265, 4112
18:02:02.086678, 382.2675, 4198
18:02:02.086733, 382.27, 4191
18:02:02.116424, 382.2725, 4189
18:02:02.116516, 382.275, 4170
18:02:02.116543, 382.2775, 4205
18:02:02.116565, 382.28, 4192
18:02:02.117065, 382.2825, 4111
18:02:02.117133, 382.285, 4191
18:02:02.117178, 382.2875, 4199
18:02:02.117193, 382.29, 4204
18:02:02.120874, 382.2925, 4182
18:02:02.120916, 382.295, 4212
18:02:02.120944, 382.2975, 4203
18:02:02.120970, 382.3, 4133
18:02:02.120995, 382.3025, 4205
18:02:02.145756, 382.305, 4201
18:02:02.145859, 382.3075, 4205
18:02:02.145901, 382.31, 4175
18:02:02.146559, 382.3125, 4162
18:02:02.146611, 382.315, 4174
18:02:02.146640, 382.3175, 4082
18:02:02.146667, 382.32, 4159
18:02:02.146693, 382.3225, 4177
18:02:02.178632, 382.325, 4173
18:02:02.178812, 382.3275, 4148
18:02:02.178929, 382.33, 4163
18:02:02.178970, 382.3325, 4165
18:02:02.179438, 382.335, 4097
18:02:02.179482, 382.3375, 4161
18:02:02.179505, 382.34, 4157
18:02:02.179526, 382.3425, 4158
18:02:02.179895, 382.345, 4152
18:02:02.179935, 382.3475, 4166
18:02:02.179958, 382.35, 4165
18:02:02.179979, 382.3525, 4085
18:02:02.181914, 382.355, 4187
18:02:02.181948, 382.3575, 4168
18:02:02.181969, 382.36, 4174
18:02:02.181989, 382.3625, 4152
18:02:02.191158, 382.365, 4168
18:02:02.191183, 382.3675, 4161
18:02:02.191197, 382.37, 4073
18:02:02.191211, 382.3725, 4165
18:02:02.191225, 382.375, 4175
18:02:02.214306, 382.3775, 4182
18:02:02.214367, 382.38, 4173
18:02:02.214392, 382.3825, 4147
18:02:02.214412, 382.385, 4157
18:02:02.216710, 382.3875, 4070
18:02:02.216738, 382.39, 4137
18:02:02.216754, 382.3925, 4155
18:02:02.216769, 382.395, 4139
18:02:02.226207, 382.3975, 4138
18:02:02.226303, 382.4, 4139
18:02:02.226367, 382.4025, 4144
18:02:02.226381, 382.405, 4059
18:02:02.248454, 382.4075, 4156
18:02:02.248513, 382.41, 4165
18:02:02.248535, 382.4125, 4159
18:02:02.248554, 382.415, 4137
18:02:02.248892, 382.4175, 4164
18:02:02.248913, 382.42, 4144
18:02:02.248928, 382.4225, 4071
18:02:02.248943, 382.425, 4150
18:02:02.251954, 382.4275, 4151
18:02:02.252007, 382.43, 4160
18:02:02.252037, 382.4325, 4139
18:02:02.252067, 382.435, 4160
18:02:02.283126, 382.4375, 4152
18:02:02.283179, 382.44, 4055
18:02:02.283202, 382.4425, 4146
18:02:02.283222, 382.445, 4135
18:02:02.283558, 382.4475, 4126
18:02:02.283583, 382.45, 4119
18:02:02.283599, 382.4525, 4148
18:02:02.283614, 382.455, 4162
18:02:02.283629, 382.4575, 4056
18:02:02.287643, 382.46, 4125
18:02:02.287736, 382.4625, 4159
18:02:02.287796, 382.465, 4136
18:02:02.287849, 382.4675, 4121
18:02:02.296357, 382.47, 4158
18:02:02.296438, 382.4725, 4149
18:02:02.296470, 382.475, 4076
18:02:02.296499, 382.4775, 4147
18:02:02.315883, 382.48, 4145
18:02:02.315942, 382.4825, 4146
18:02:02.315963, 382.485, 4129
18:02:02.315982, 382.4875, 4154
18:02:02.322173, 382.49, 4159
18:02:02.322237, 382.4925, 4072
18:02:02.322276, 382.495, 4142
18:02:02.322311, 382.4975, 4155
18:02:02.348454, 382.5, 4142
18:02:02.348541, 382.5025, 4153
18:02:02.348577, 382.505, 4176
18:02:02.348632, 382.5075, 4158
18:02:02.348666, 382.51, 4080
18:02:02.350590, 382.5125, 4165
18:02:02.350624, 382.515, 4178
18:02:02.350648, 382.5175, 4170
18:02:02.351698, 382.52, 4151
18:02:02.351731, 382.5225, 4188
18:02:02.351755, 382.525, 4166
18:02:02.351777, 382.5275, 4102
18:02:02.351800, 382.53, 4172
18:02:02.357367, 382.5325, 4188
18:02:02.357459, 382.535, 4161
18:02:02.357509, 382.5375, 4098
18:02:02.357556, 382.54, 4189
18:02:02.381658, 382.5425, 4180
18:02:02.381715, 382.545, 4107
18:02:02.381736, 382.5475, 4199
18:02:02.381755, 382.55, 4192
18:02:02.383197, 382.5525, 4190
18:02:02.383230, 382.555, 4187
18:02:02.383252, 382.5575, 4175
18:02:02.383272, 382.56, 4151
18:02:02.392759, 382.5625, 4081
18:02:02.392859, 382.565, 4156
18:02:02.392914, 382.5675, 4155
18:02:02.392964, 382.57, 4150
18:02:02.417239, 382.5725, 4121
18:02:02.417307, 382.575, 4180
18:02:02.417331, 382.5775, 4135
18:02:02.417351, 382.58, 4066
18:02:02.417716, 382.5825, 4128
18:02:02.417739, 382.585, 4151
18:02:02.417755, 382.5875, 4155
18:02:02.417770, 382.59, 4127
18:02:02.417784, 382.5925, 4158
18:02:02.418047, 382.595, 4152
18:02:02.418069, 382.5975, 4076
18:02:02.418083, 382.6, 4153
18:02:02.451248, 382.6025, 4144
18:02:02.451308, 382.605, 4156
18:02:02.451331, 382.6075, 4130
18:02:02.451352, 382.61, 4166
18:02:02.451372, 382.6125, 4162
18:02:02.451708, 382.615, 4081
18:02:02.451733, 382.6175, 4161
18:02:02.451749, 382.62, 4143
18:02:02.451764, 382.6225, 4136
18:02:02.452944, 382.625, 4133
18:02:02.452964, 382.6275, 4165
18:02:02.452979, 382.63, 4160
18:02:02.452994, 382.6325, 4074
18:02:02.462169, 382.635, 4168
18:02:02.462215, 382.6375, 4155
18:02:02.462234, 382.64, 4143
18:02:02.462252, 382.6425, 4132
18:02:02.481418, 382.645, 4161
18:02:02.481553, 382.6475, 4172
18:02:02.481648, 382.65, 4095
18:02:02.481713, 382.6525, 4170
18:02:02.482263, 382.655, 4175
18:02:02.482309, 382.6575, 4192
18:02:02.482334, 382.66, 4181
18:02:02.482356, 382.6625, 4201
18:02:02.488214, 382.665, 4161
18:02:02.488274, 382.6675, 4086
18:02:02.488305, 382.67, 4174
18:02:02.488335, 382.6725, 4182
18:02:02.513632, 382.675, 4148
18:02:02.513722, 382.6775, 4134
18:02:02.513748, 382.68, 4175
18:02:02.513768, 382.6825, 4164
18:02:02.513788, 382.685, 4089
18:02:02.514212, 382.6875, 4180
18:02:02.514243, 382.69, 4185
18:02:02.514259, 382.6925, 4181
18:02:02.523446, 382.695, 4172
18:02:02.523526, 382.6975, 4187
18:02:02.523572, 382.7, 4173
18:02:02.523614, 382.7025, 4095
18:02:02.523655, 382.705, 4183
18:02:02.547265, 382.7075, 4186
18:02:02.547376, 382.71, 4201
18:02:02.547408, 382.7125, 4154
18:02:02.547434, 382.715, 4188
18:02:02.547861, 382.7175, 4182
18:02:02.547893, 382.72, 4101
18:02:02.547908, 382.7225, 4187
18:02:02.547923, 382.725, 4201
18:02:02.584814, 382.7275, 4187
18:02:02.584887, 382.73, 4151
18:02:02.584913, 382.7325, 4150
18:02:02.584934, 382.735, 4112
18:02:02.585342, 382.7375, 4069
18:02:02.585371, 382.74, 4138
18:02:02.585387, 382.7425, 4123
18:02:02.585402, 382.745, 4112
18:02:02.585688, 382.7475, 4106
18:02:02.585710, 382.75, 4126
18:02:02.585725, 382.7525, 4127
18:02:02.585740, 382.755, 4051
18:02:02.586006, 382.7575, 4139
18:02:02.586026, 382.76, 4142
18:02:02.586041, 382.7625, 4132
18:02:02.586056, 382.765, 4114
18:02:02.593999, 382.7675, 4150
18:02:02.594083, 382.77, 4158
18:02:02.594137, 382.7725, 4081
18:02:02.594187, 382.775, 4192
18:02:02.615962, 382.7775, 4177
18:02:02.616047, 382.78, 4182
18:02:02.616088, 382.7825, 4144
18:02:02.616110, 382.785, 4146
18:02:02.648420, 382.7875, 4160
18:02:02.648524, 382.79, 4061
18:02:02.648550, 382.7925, 4167
18:02:02.648571, 382.795, 4166
18:02:02.648594, 382.7975, 4154
18:02:02.649138, 382.8, 4126
18:02:02.649181, 382.8025, 4155
18:02:02.649198, 382.805, 4146
18:02:02.649213, 382.8075, 4135
18:02:02.649474, 382.81, 4176
18:02:02.649497, 382.8125, 4178
18:02:02.649512, 382.815, 4156
18:02:02.649580, 382.8175, 4091
18:02:02.649842, 382.82, 4175
18:02:02.649865, 382.8225, 4164
18:02:02.649880, 382.825, 4071
18:02:02.649895, 382.8275, 4179
18:02:02.654547, 382.83, 4206
18:02:02.654595, 382.8325, 4208
18:02:02.654624, 382.835, 4205
18:02:02.654650, 382.8375, 4322
18:02:02.664799, 382.84, 4403
18:02:02.664849, 382.8425, 4357
18:02:02.664901, 382.845, 4464
18:02:02.664936, 382.8475, 4478
18:02:02.683776, 382.85, 4525
18:02:02.683873, 382.8525, 4365
18:02:02.683911, 382.855, 4221
18:02:02.683945, 382.8575, 3975
18:02:02.689380, 382.86, 3614
18:02:02.689435, 382.8625, 3376
18:02:02.689463, 382.865, 2992
18:02:02.689487, 382.8675, 2565
18:02:02.715078, 382.87, 2019
18:02:02.715169, 382.8725, 1715
18:02:02.715195, 382.875, 1625
18:02:02.715215, 382.8775, 1666
18:02:02.715597, 382.88, 2210
18:02:02.715630, 382.8825, 3061
18:02:02.715646, 382.885, 3967
18:02:02.715672, 382.8875, 4610
18:02:02.715698, 382.89, 4965
18:02:02.716027, 382.8925, 4997
18:02:02.716055, 382.895, 4808
18:02:02.716071, 382.8975, 4721
18:02:02.716086, 382.9, 4614
18:02:02.724870, 382.9025, 4567
18:02:02.724956, 382.905, 4538
18:02:02.725007, 382.9075, 4546
18:02:02.725053, 382.91, 4508
18:02:02.753576, 382.9125, 4422
18:02:02.753639, 382.915, 4503
18:02:02.753663, 382.9175, 4515
18:02:02.753683, 382.92, 4499
18:02:02.754013, 382.9225, 4507
18:02:02.754039, 382.925, 4510
18:02:02.754055, 382.9275, 4500
18:02:02.754069, 382.93, 4430
18:02:02.759548, 382.9325, 4486
18:02:02.759631, 382.935, 4473
18:02:02.759671, 382.9375, 4456
18:02:02.759706, 382.94, 4434
18:02:02.781866, 382.9425, 4434
18:02:02.781977, 382.945, 4430
18:02:02.782030, 382.9475, 4342
18:02:02.782065, 382.95, 4423
18:02:02.782592, 382.9525, 4425
18:02:02.782639, 382.955, 4392
18:02:02.782662, 382.9575, 4356
18:02:02.782684, 382.96, 4372
18:02:02.794601, 382.9625, 4357
18:02:02.794644, 382.965, 4255
18:02:02.794660, 382.9675, 4328
18:02:02.794674, 382.97, 4361
18:02:02.815613, 382.9725, 4344
18:02:02.815721, 382.975, 4355
18:02:02.815757, 382.9775, 4332
18:02:02.815788, 382.98, 4319
18:02:02.815819, 382.9825, 4216
18:02:02.816443, 382.985, 4300
18:02:02.816492, 382.9875, 4312
18:02:02.816516, 382.99, 4305
18:02:02.816540, 382.9925, 4297
18:02:02.820882, 382.995, 4300
18:02:02.820930, 382.9975, 4305
18:02:02.820957, 383.0, 4198
18:02:02.820983, 383.0025, 4277
18:02:02.829172, 383.005, 4253
18:02:02.829199, 383.0075, 4251
18:02:02.829215, 383.01, 4233
18:02:02.829287, 383.0125, 4263
18:02:02.849277, 383.015, 4252
18:02:02.849385, 383.0175, 4185
18:02:02.849412, 383.02, 4258
18:02:02.849439, 383.0225, 4252
18:02:02.855849, 383.025, 4235
18:02:02.855895, 383.0275, 4213
18:02:02.855921, 383.03, 4228
18:02:02.855944, 383.0325, 4197
18:02:02.865361, 383.035, 4121
18:02:02.865423, 383.0375, 4228
18:02:02.865467, 383.04, 4214
18:02:02.865489, 383.0425, 4187
18:02:02.886745, 383.045, 4180
18:02:02.886807, 383.0475, 4188
18:02:02.886885, 383.05, 4189
18:02:02.886910, 383.0525, 4103
18:02:02.887256, 383.055, 4209
18:02:02.887280, 383.0575, 4205
18:02:02.887297, 383.06, 4210
18:02:02.887313, 383.0625, 4190
18:02:02.890726, 383.065, 4221
18:02:02.890757, 383.0675, 4205
18:02:02.890775, 383.07, 4117
18:02:02.890793, 383.0725, 4207
18:02:02.919419, 383.075, 4216
18:02:02.919475, 383.0775, 4200
18:02:02.919498, 383.08, 4177
18:02:02.919519, 383.0825, 4201
18:02:02.919883, 383.085, 4207
18:02:02.919909, 383.0875, 4127
18:02:02.919925, 383.09, 4208
18:02:02.919940, 383.0925, 4210
18:02:02.926368, 383.095, 4200
18:02:02.926466, 383.0975, 4219
18:02:02.926524, 383.1, 4202
18:02:02.926577, 383.1025, 4207
18:02:02.926628, 383.105, 4128
18:02:02.953204, 383.1075, 4218
18:02:02.953263, 383.11, 4237
18:02:02.953311, 383.1125, 4194
18:02:02.953336, 383.115, 4195
18:02:02.953656, 383.1175, 4196
18:02:02.953677, 383.12, 4214
18:02:02.953693, 383.1225, 4134
18:02:02.953708, 383.125, 4238
18:02:02.953968, 383.1275, 4218
18:02:02.953987, 383.13, 4226
18:02:02.954002, 383.1325, 4211
18:02:02.954017, 383.135, 4222
18:02:02.960582, 383.1375, 4199
18:02:02.960619, 383.14, 4111
18:02:02.960637, 383.1425, 4194
18:02:02.960680, 383.145, 4175
18:02:02.984073, 383.1475, 4171
18:02:02.984238, 383.15, 4131
18:02:02.984282, 383.1525, 4172
18:02:02.984316, 383.155, 4152
18:02:02.984349, 383.1575, 4059
18:02:02.987046, 383.16, 4115
18:02:02.987102, 383.1625, 4106
18:02:02.987133, 383.165, 4083
18:02:02.987163, 383.1675, 4054
18:02:02.995865, 383.17, 4093
18:02:02.995910, 383.1725, 4083
18:02:02.995926, 383.175, 3991
18:02:02.995941, 383.1775, 4098
18:02:03.016671, 383.18, 4084
18:02:03.016764, 383.1825, 4071
18:02:03.016791, 383.185, 4074
18:02:03.016812, 383.1875, 4108
18:02:03.017182, 383.19, 4136
18:02:03.017213, 383.1925, 4073
18:02:03.017229, 383.195, 4149
18:02:03.017245, 383.1975, 4154
18:02:03.063151, 383.2, 4149
18:02:03.063202, 383.2025, 4140
18:02:03.063262, 383.205, 4150
18:02:03.063310, 383.2075, 4175
18:02:03.063570, 383.21, 4104
18:02:03.063590, 383.2125, 4184
18:02:03.063604, 383.215, 4195
18:02:03.063617, 383.2175, 4194
18:02:03.064755, 383.22, 4176
18:02:03.064814, 383.2225, 4219
18:02:03.064842, 383.225, 4218
18:02:03.064940, 383.2275, 4123
18:02:03.082997, 383.23, 4215
18:02:03.083117, 383.2325, 4197
18:02:03.083151, 383.235, 4220
18:02:03.083180, 383.2375, 4210
18:02:03.083610, 383.24, 4228
18:02:03.083658, 383.2425, 4224
18:02:03.083675, 383.245, 4132
18:02:03.083691, 383.2475, 4235
18:02:03.083967, 383.25, 4215
18:02:03.083996, 383.2525, 4207
18:02:03.084012, 383.255, 4174
18:02:03.084028, 383.2575, 4198
18:02:03.091822, 383.26, 4210
18:02:03.091859, 383.2625, 4125
18:02:03.091875, 383.265, 4208
18:02:03.091890, 383.2675, 4195
18:02:03.120644, 383.27, 4183
18:02:03.120746, 383.2725, 4176
18:02:03.120793, 383.275, 4178
18:02:03.120903, 383.2775, 4192
18:02:03.120972, 383.28, 4103
18:02:03.121519, 383.2825, 4192
18:02:03.121558, 383.285, 4203
18:02:03.121585, 383.2875, 4210
18:02:03.121610, 383.29, 4204
18:02:03.122039, 383.2925, 4214
18:02:03.122077, 383.295, 4209
18:02:03.122104, 383.2975, 4104
18:02:03.122129, 383.3, 4174
18:02:03.127179, 383.3025, 4171
18:02:03.127204, 383.305, 4164
18:02:03.127220, 383.3075, 4130
18:02:03.127235, 383.31, 4142
18:02:03.157073, 383.3125, 4160
18:02:03.157214, 383.315, 4087
18:02:03.157284, 383.3175, 4184
18:02:03.157338, 383.32, 4159
18:02:03.158064, 383.3225, 4170
18:02:03.158120, 383.325, 4134
18:02:03.158157, 383.3275, 4142
18:02:03.158192, 383.33, 4137
18:02:03.186645, 383.3325, 4064
18:02:03.186737, 383.335, 4162
18:02:03.186801, 383.3375, 4170
18:02:03.186878, 383.34, 4161
18:02:03.186908, 383.3425, 4163
18:02:03.187283, 383.345, 4141
18:02:03.187306, 383.3475, 4145
18:02:03.187322, 383.35, 4076
18:02:03.187337, 383.3525, 4163
18:02:03.187590, 383.355, 4163
18:02:03.187609, 383.3575, 4143
18:02:03.187624, 383.36, 4086
18:02:03.187638, 383.3625, 4187
18:02:03.187935, 383.365, 4169
18:02:03.187954, 383.3675, 4093
18:02:03.187968, 383.37, 4186
18:02:03.187983, 383.3725, 4169
18:02:03.226810, 383.375, 4180
18:02:03.226945, 383.3775, 4155
18:02:03.227023, 383.38, 4177
18:02:03.227120, 383.3825, 4179
18:02:03.228182, 383.385, 4098
18:02:03.228269, 383.3875, 4184
18:02:03.228326, 383.39, 4182
18:02:03.228378, 383.3925, 4182
18:02:03.229284, 383.395, 4174
18:02:03.229352, 383.3975, 4175
18:02:03.229405, 383.4, 4158
18:02:03.229456, 383.4025, 4103
18:02:03.233137, 383.405, 4181
18:02:03.233218, 383.4075, 4194
18:02:03.233253, 383.41, 4179
18:02:03.233286, 383.4125, 4167
18:02:03.259312, 383.415, 4184
18:02:03.259409, 383.4175, 4179
18:02:03.259442, 383.42, 4078
18:02:03.259490, 383.4225, 4173
18:02:03.260268, 383.425, 4161
18:02:03.260332, 383.4275, 4148
18:02:03.260373, 383.43, 4141
18:02:03.260412, 383.4325, 4176
18:02:03.284749, 383.435, 4191
18:02:03.284887, 383.4375, 4119
18:02:03.284927, 383.44, 4177
18:02:03.284961, 383.4425, 4197
18:02:03.292134, 383.445, 4177
18:02:03.292271, 383.4475, 4152
18:02:03.292349, 383.45, 4162
18:02:03.292421, 383.4525, 4156
18:02:03.292490, 383.455, 4070
18:02:03.293380, 383.4575, 4177
18:02:03.293404, 383.46, 4151
18:02:03.293420, 383.4625, 4153
18:02:03.293435, 383.465, 4135
18:02:03.293799, 383.4675, 4153
18:02:03.293835, 383.47, 4157
18:02:03.293858, 383.4725, 4074
18:02:03.293908, 383.475, 4171
18:02:03.317829, 383.4775, 4183
18:02:03.317911, 383.48, 4174
18:02:03.317935, 383.4825, 4153
18:02:03.317953, 383.485, 4182
18:02:03.319401, 383.4875, 4181
18:02:03.319473, 383.49, 4077
18:02:03.319501, 383.4925, 4165
18:02:03.319526, 383.495, 4175
18:02:03.328373, 383.4975, 4181
18:02:03.328448, 383.5, 4179
18:02:03.328490, 383.5025, 4170
18:02:03.328530, 383.505, 4151
18:02:03.352123, 383.5075, 4069
18:02:03.352244, 383.51, 4155
18:02:03.352291, 383.5125, 4148
18:02:03.352330, 383.515, 4137
18:02:03.352972, 383.5175, 4135
18:02:03.353027, 383.52, 4163
18:02:03.353058, 383.5225, 4173
18:02:03.353087, 383.525, 4098
18:02:03.354533, 383.5275, 4172
18:02:03.354577, 383.53, 4162
18:02:03.354605, 383.5325, 4146
18:02:03.354632, 383.535, 4157
18:02:03.363764, 383.5375, 4177
18:02:03.363881, 383.54, 4165
18:02:03.363940, 383.5425, 4077
18:02:03.363993, 383.545, 4178
18:02:03.391065, 383.5475, 4151
18:02:03.391124, 383.55, 4153
18:02:03.391147, 383.5525, 4140
18:02:03.391172, 383.555, 4178
18:02:03.391519, 383.5575, 4160
18:02:03.391546, 383.56, 4066
18:02:03.391561, 383.5625, 4143
18:02:03.391575, 383.565, 4138
18:02:03.391589, 383.5675, 4133
18:02:03.398131, 383.57, 4135
18:02:03.398178, 383.5725, 4174
18:02:03.398206, 383.575, 4181
18:02:03.398232, 383.5775, 4078
18:02:03.421944, 383.58, 4168
18:02:03.422031, 383.5825, 4176
18:02:03.422107, 383.585, 4178
18:02:03.422142, 383.5875, 4159
18:02:03.422606, 383.59, 4167
18:02:03.422639, 383.5925, 4160
18:02:03.422662, 383.595, 4066
18:02:03.422685, 383.5975, 4174
18:02:03.433867, 383.6, 4159
18:02:03.433923, 383.6025, 4164
18:02:03.433943, 383.605, 4143
18:02:03.433962, 383.6075, 4184
18:02:03.452486, 383.61, 4184
18:02:03.452586, 383.6125, 4104
18:02:03.452722, 383.615, 4171
18:02:03.452761, 383.6175, 4183
18:02:03.453315, 383.62, 4180
18:02:03.453367, 383.6225, 4159
18:02:03.453394, 383.625, 4193
18:02:03.453420, 383.6275, 4175
18:02:03.453447, 383.63, 4099
18:02:03.459859, 383.6325, 4199
18:02:03.459961, 383.635, 4187
18:02:03.460016, 383.6375, 4182
18:02:03.460068, 383.64, 4152
18:02:03.468446, 383.6425, 4176
18:02:03.468494, 383.645, 4186
18:02:03.468516, 383.6475, 4109
18:02:03.468535, 383.65, 4215
18:02:03.485319, 383.6525, 4181
18:02:03.485500, 383.655, 4173
18:02:03.485544, 383.6575, 4142
18:02:03.485579, 383.66, 4172
18:02:03.486145, 383.6625, 4170
18:02:03.486206, 383.665, 4106
18:02:03.486255, 383.6675, 4181
18:02:03.486282, 383.67, 4173
18:02:03.518476, 383.6725, 4154
18:02:03.518550, 383.675, 4143
18:02:03.518666, 383.6775, 4171
18:02:03.518740, 383.68, 4162
18:02:03.519295, 383.6825, 4093
18:02:03.519345, 383.685, 4159
18:02:03.519370, 383.6875, 4161
18:02:03.519393, 383.69, 4134
18:02:03.522638, 383.6925, 4138
18:02:03.522676, 383.695, 4175
18:02:03.522700, 383.6975, 4161
18:02:03.522723, 383.7, 4088
18:02:03.522746, 383.7025, 4163
18:02:03.529389, 383.705, 4156
18:02:03.529441, 383.7075, 4174
18:02:03.529462, 383.71, 4152
18:02:03.529482, 383.7125, 4190
18:02:03.555225, 383.715, 4184
18:02:03.555284, 383.7175, 4088
18:02:03.555348, 383.72, 4180
18:02:03.555372, 383.7225, 4183
18:02:03.555701, 383.725, 4170
18:02:03.555725, 383.7275, 4162
18:02:03.555741, 383.73, 4181
18:02:03.555756, 383.7325, 4155
18:02:03.564241, 383.735, 4073
18:02:03.564285, 383.7375, 4152
18:02:03.564302, 383.74, 4153
18:02:03.564317, 383.7425, 4154
18:02:03.591224, 383.745, 4142
18:02:03.591285, 383.7475, 4161
18:02:03.591312, 383.75, 4176
18:02:03.591334, 383.7525, 4082
18:02:03.591737, 383.755, 4172
18:02:03.591760, 383.7575, 4150
18:02:03.591777, 383.76, 4155
18:02:03.591794, 383.7625, 4147
18:02:03.592084, 383.765, 4165
18:02:03.592106, 383.7675, 4168
18:02:03.592123, 383.77, 4072
18:02:03.592140, 383.7725, 4163
18:02:03.599611, 383.775, 4159
18:02:03.599670, 383.7775, 4165
18:02:03.599706, 383.78, 4150
18:02:03.599737, 383.7825, 4182
18:02:03.620322, 383.785, 4173
18:02:03.620435, 383.7875, 4059
18:02:03.620474, 383.79, 4164
18:02:03.620505, 383.7925, 4179
18:02:03.625852, 383.795, 4158
18:02:03.625905, 383.7975, 4158
18:02:03.625930, 383.8, 4165
18:02:03.625988, 383.8025, 4164
18:02:03.626014, 383.805, 4089
18:02:03.635192, 383.8075, 4179
18:02:03.635266, 383.81, 4180
18:02:03.635301, 383.8125, 4164
18:02:03.635331, 383.815, 4158
18:02:03.656292, 383.8175, 4167
18:02:03.656414, 383.82, 4170
18:02:03.656449, 383.8225, 4081
18:02:03.656480, 383.825, 4171
18:02:03.656960, 383.8275, 4166
18:02:03.656992, 383.83, 4164
18:02:03.657015, 383.8325, 4163
18:02:03.657037, 383.835, 4181
18:02:03.660870, 383.8375, 4181
18:02:03.660914, 383.84, 4097
18:02:03.660957, 383.8425, 4193
18:02:03.661004, 383.845, 4182
18:02:03.686884, 383.8475, 4166
18:02:03.686983, 383.85, 4117
18:02:03.687047, 383.8525, 4128
18:02:03.687072, 383.855, 4122
18:02:03.687411, 383.8575, 4028
18:02:03.687447, 383.86, 4086
18:02:03.687463, 383.8625, 4065
18:02:03.687478, 383.865, 4079
18:02:03.696378, 383.8675, 4098
18:02:03.696475, 383.87, 4133
18:02:03.696523, 383.8725, 4135
18:02:03.696563, 383.875, 4058
18:02:03.724533, 383.8775, 4128
18:02:03.724596, 383.88, 4153
18:02:03.724656, 383.8825, 4159
18:02:03.724687, 383.885, 4147
18:02:03.724712, 383.8875, 4179
18:02:03.725097, 383.89, 4170
18:02:03.725125, 383.8925, 4081
18:02:03.725144, 383.895, 4165
18:02:03.725163, 383.8975, 4168
18:02:03.725488, 383.9, 4173
18:02:03.725512, 383.9025, 4136
18:02:03.725531, 383.905, 4154
18:02:03.725550, 383.9075, 4165
18:02:03.756772, 383.91, 4081
18:02:03.756840, 383.9125, 4186
18:02:03.756864, 383.915, 4169
18:02:03.756884, 383.9175, 4152
18:02:03.757241, 383.92, 4152
18:02:03.757263, 383.9225, 4165
18:02:03.757279, 383.925, 4157
18:02:03.757294, 383.9275, 4079
18:02:03.757561, 383.93, 4175
18:02:03.757581, 383.9325, 4156
18:02:03.757597, 383.935, 4149
18:02:03.757612, 383.9375, 4123
18:02:03.786980, 383.94, 4160
18:02:03.787119, 383.9425, 4156
18:02:03.787156, 383.945, 4099
18:02:03.787186, 383.9475, 4186
18:02:03.787646, 383.95, 4230
18:02:03.787694, 383.9525, 4304
18:02:03.787716, 383.955, 4340
18:02:03.787737, 383.9575, 4410
18:02:03.792163, 383.96, 4450
18:02:03.792229, 383.9625, 4387
18:02:03.792265, 383.965, 4427
18:02:03.792299, 383.9675, 4320
18:02:03.800562, 383.97, 4127
18:02:03.800585, 383.9725, 3902
18:02:03.800600, 383.975, 3608
18:02:03.800614, 383.9775, 3323
18:02:03.800628, 383.98, 2875
18:02:03.822001, 383.9825, 2523
18:02:03.822065, 383.985, 2031
18:02:03.822090, 383.9875, 1796
18:02:03.822110, 383.99, 1722
18:02:03.822454, 383.9925, 1917
18:02:03.822477, 383.995, 2346
18:02:03.822493, 383.9975, 3106
18:02:03.822507, 384.0, 4131
18:02:03.826995, 384.0025, 4746
18:02:03.827051, 384.005, 5015
18:02:03.827076, 384.0075, 5028
18:02:03.827097, 384.01, 4964
18:02:03.856066, 384.0125, 4802
18:02:03.856125, 384.015, 4566
18:02:03.856147, 384.0175, 4554
18:02:03.856167, 384.02, 4544
18:02:03.856525, 384.0225, 4503
18:02:03.856546, 384.025, 4478
18:02:03.856562, 384.0275, 4489
18:02:03.856576, 384.03, 4488
18:02:03.856591, 384.0325, 4437
18:02:03.862132, 384.035, 4521
18:02:03.862203, 384.0375, 4522
18:02:03.862242, 384.04, 4479
18:02:03.862275, 384.0425, 4465
18:02:03.891245, 384.045, 4477
18:02:03.891309, 384.0475, 4442
18:02:03.891333, 384.05, 4359
18:02:03.891354, 384.0525, 4441
18:02:03.891713, 384.055, 4441
18:02:03.891740, 384.0575, 4425
18:02:03.891756, 384.06, 4391
18:02:03.891771, 384.0625, 4418
18:02:03.892030, 384.065, 4379
18:02:03.892049, 384.0675, 4284
18:02:03.892065, 384.07, 4363
18:02:03.892079, 384.0725, 4377
18:02:03.925095, 384.075, 4369
18:02:03.925186, 384.0775, 4331
18:02:03.925212, 384.08, 4356
18:02:03.925233, 384.0825, 4348
18:02:03.925549, 384.085, 4253
18:02:03.925572, 384.0875, 4340
18:02:03.925588, 384.09, 4330
18:02:03.925603, 384.0925, 4327
18:02:03.925869, 384.095, 4306
18:02:03.925889, 384.0975, 4322
18:02:03.925905, 384.1, 4304
18:02:03.925920, 384.1025, 4242
18:02:03.931817, 384.105, 4295
18:02:03.931847, 384.1075, 4283
18:02:03.931864, 384.11, 4276
18:02:03.931880, 384.1125, 4246
18:02:03.955336, 384.115, 4270
18:02:03.955484, 384.1175, 4260
18:02:03.955532, 384.12, 4174
18:02:03.955618, 384.1225, 4246
18:02:03.956184, 384.125, 4233
18:02:03.956232, 384.1275, 4239
18:02:03.956308, 384.13, 4222
18:02:03.956339, 384.1325, 4240
18:02:03.967123, 384.135, 4229
18:02:03.967153, 384.1375, 4141
18:02:03.967168, 384.14, 4211
18:02:03.967183, 384.1425, 4208
18:02:03.967196, 384.145, 4210
18:02:03.988581, 384.1475, 4191
18:02:03.988682, 384.15, 4191
18:02:03.988708, 384.1525, 4186
18:02:03.988728, 384.155, 4106
18:02:03.989104, 384.1575, 4171
18:02:03.989143, 384.16, 4172
18:02:03.989159, 384.1625, 4168
18:02:03.989174, 384.165, 4154
18:02:04.004797, 384.1675, 4200
18:02:04.004871, 384.17, 4191
18:02:04.004893, 384.1725, 4118
18:02:04.004912, 384.175, 4195
18:02:04.022512, 384.1775, 4178
18:02:04.022598, 384.18, 4170
18:02:04.022626, 384.1825, 4144
18:02:04.022647, 384.185, 4199
18:02:04.023306, 384.1875, 4177
18:02:04.023345, 384.19, 4085
18:02:04.023378, 384.1925, 4177
18:02:04.023394, 384.195, 4208
18:02:04.028337, 384.1975, 4171
18:02:04.028405, 384.2, 4164
18:02:04.028447, 384.2025, 4158
18:02:04.028484, 384.205, 4176
18:02:04.028521, 384.2075, 4093
18:02:04.037261, 384.21, 4171
18:02:04.037319, 384.2125, 4162
18:02:04.037348, 384.215, 4147
18:02:04.037378, 384.2175, 4137
18:02:04.059579, 384.22, 4170
18:02:04.059675, 384.2225, 4146
18:02:04.059722, 384.225, 4081
18:02:04.059758, 384.2275, 4173
18:02:04.060125, 384.23, 4159
18:02:04.060148, 384.2325, 4166
18:02:04.060163, 384.235, 4122
18:02:04.060177, 384.2375, 4158
18:02:04.063521, 384.24, 4154
18:02:04.063600, 384.2425, 4090
18:02:04.063644, 384.245, 4179
18:02:04.063684, 384.2475, 4169
18:02:04.091416, 384.25, 4168
18:02:04.091530, 384.2525, 4151
18:02:04.091590, 384.255, 4173
18:02:04.091641, 384.2575, 4180
18:02:04.092487, 384.26, 4082
18:02:04.092548, 384.2625, 4176
18:02:04.092602, 384.265, 4155
18:02:04.092653, 384.2675, 4154
18:02:04.098449, 384.27, 4132
18:02:04.098517, 384.2725, 4131
18:02:04.098571, 384.275, 4137
18:02:04.098622, 384.2775, 4037
18:02:04.122359, 384.28, 4120
18:02:04.122482, 384.2825, 4132
18:02:04.122519, 384.285, 4131
18:02:04.122548, 384.2875, 4116
18:02:04.123111, 384.29, 4139
18:02:04.123149, 384.2925, 4145
18:02:04.123165, 384.295, 4072
18:02:04.123179, 384.2975, 4155
18:02:04.124314, 384.3, 4143
18:02:04.124343, 384.3025, 4170
18:02:04.124358, 384.305, 4129
18:02:04.124372, 384.3075, 4229
18:02:04.124386, 384.31, 4234
18:02:04.165289, 384.3125, 4147
18:02:04.165417, 384.315, 4249
18:02:04.165483, 384.3175, 4257
18:02:04.165536, 384.32, 4253
18:02:04.168549, 384.3225, 4216
18:02:04.168652, 384.325, 4251
18:02:04.168712, 384.3275, 4250
18:02:04.168763, 384.33, 4195
18:02:04.170057, 384.3325, 4269
18:02:04.170169, 384.335, 4267
18:02:04.170203, 384.3375, 4264
18:02:04.170231, 384.34, 4252
18:02:04.171362, 384.3425, 4299
18:02:04.171423, 384.345, 4281
18:02:04.171457, 384.3475, 4214
18:02:04.171478, 384.35, 4292
18:02:04.193092, 384.3525, 4340
18:02:04.193155, 384.355, 4310
18:02:04.193184, 384.3575, 4290
18:02:04.193209, 384.36, 4292
18:02:04.194637, 384.3625, 4282
18:02:04.194674, 384.365, 4172
18:02:04.194695, 384.3675, 4270
18:02:04.194713, 384.37, 4254
18:02:04.203823, 384.3725, 4249
18:02:04.203870, 384.375, 4246
18:02:04.203893, 384.3775, 4253
18:02:04.203915, 384.38, 4230
18:02:04.203938, 384.3825, 4133
18:02:04.226696, 384.385, 4226
18:02:04.226755, 384.3875, 4234
18:02:04.226778, 384.39, 4229
18:02:04.226798, 384.3925, 4216
18:02:04.231987, 384.395, 4244
18:02:04.232058, 384.3975, 4240
18:02:04.232101, 384.4, 4122
18:02:04.232139, 384.4025, 4206
18:02:04.233171, 384.405, 4221
18:02:04.233221, 384.4075, 4224
18:02:04.233260, 384.41, 4201
18:02:04.233297, 384.4125, 4219
18:02:04.238658, 384.415, 4200
18:02:04.238704, 384.4175, 4130
18:02:04.238725, 384.42, 4191
18:02:04.238746, 384.4225, 4191
18:02:04.258484, 384.425, 4192
18:02:04.258592, 384.4275, 4171
18:02:04.258633, 384.43, 4188
18:02:04.258726, 384.4325, 4212
18:02:04.264413, 384.435, 4130
18:02:04.264465, 384.4375, 4211
18:02:04.264496, 384.44, 4217
18:02:04.264523, 384.4425, 4180
18:02:04.290421, 384.445, 4167
18:02:04.290481, 384.4475, 4177
18:02:04.290513, 384.45, 4186
18:02:04.290532, 384.4525, 4101
18:02:04.290898, 384.455, 4179
18:02:04.291013, 384.4575, 4182
18:02:04.291047, 384.46, 4198
18:02:04.291075, 384.4625, 4182
18:02:04.291101, 384.465, 4218
18:02:04.291570, 384.4675, 4191
18:02:04.291611, 384.47, 4107
18:02:04.291638, 384.4725, 4199
18:02:04.291664, 384.475, 4186
18:02:04.323020, 384.4775, 4181
18:02:04.323103, 384.48, 4163
18:02:04.323125, 384.4825, 4199
18:02:04.323145, 384.485, 4209
18:02:04.323510, 384.4875, 4120
18:02:04.323541, 384.49, 4214
18:02:04.323556, 384.4925, 4223
18:02:04.323570, 384.495, 4198
18:02:04.325676, 384.4975, 4194
18:02:04.325707, 384.5, 4198
18:02:04.325722, 384.5025, 4195
18:02:04.325736, 384.505, 4111
18:02:04.335057, 384.5075, 4204
18:02:04.335176, 384.51, 4219
18:02:04.335261, 384.5125, 4208
18:02:04.335335, 384.515, 4173
18:02:04.360425, 384.5175, 4196
18:02:04.360489, 384.52, 4196
18:02:04.360541, 384.5225, 4103
18:02:04.360564, 384.525, 4190
18:02:04.360886, 384.5275, 4187
18:02:04.360912, 384.53, 4198
18:02:04.360927, 384.5325, 4163
18:02:04.360942, 384.535, 4194
18:02:04.370113, 384.5375, 4167
18:02:04.370183, 384.54, 4093
18:02:04.370220, 384.5425, 4181
18:02:04.370252, 384.545, 4184
18:02:04.394543, 384.5475, 4175
18:02:04.394609, 384.55, 4176
18:02:04.394634, 384.5525, 4188
18:02:04.394655, 384.555, 4184
18:02:04.394675, 384.5575, 4098
18:02:04.395048, 384.56, 4173
18:02:04.395072, 384.5625, 4199
18:02:04.395087, 384.565, 4182
18:02:04.395103, 384.5675, 4143
18:02:04.426417, 384.57, 4190
18:02:04.426529, 384.5725, 4179
18:02:04.426560, 384.575, 4094
18:02:04.426587, 384.5775, 4196
18:02:04.427022, 384.58, 4179
18:02:04.427050, 384.5825, 4183
18:02:04.427070, 384.585, 4167
18:02:04.427089, 384.5875, 4159
18:02:04.427418, 384.59, 4167
18:02:04.427442, 384.5925, 4091
18:02:04.427461, 384.595, 4157
18:02:04.427480, 384.5975, 4197
18:02:04.458478, 384.6, 4214
18:02:04.458567, 384.6025, 4159
18:02:04.458592, 384.605, 4181
18:02:04.458613, 384.6075, 4169
18:02:04.458634, 384.61, 4098
18:02:04.459094, 384.6125, 4186
18:02:04.459140, 384.615, 4195
18:02:04.459164, 384.6175, 4182
18:02:04.459186, 384.62, 4161
18:02:04.459575, 384.6225, 4188
18:02:04.459609, 384.625, 4183
18:02:04.459631, 384.6275, 4101
18:02:04.459653, 384.63, 4192
18:02:04.460052, 384.6325, 4206
18:02:04.460084, 384.635, 4187
18:02:04.460107, 384.6375, 4165
18:02:04.460128, 384.64, 4179
18:02:04.466201, 384.6425, 4190
18:02:04.466276, 384.645, 4112
18:02:04.466330, 384.6475, 4190
18:02:04.466379, 384.65, 4204
18:02:04.491988, 384.6525, 4191
18:02:04.492051, 384.655, 4155
18:02:04.492076, 384.6575, 4177
18:02:04.492107, 384.66, 4168
18:02:04.492447, 384.6625, 4119
18:02:04.492470, 384.665, 4194
18:02:04.492486, 384.6675, 4217
18:02:04.492500, 384.67, 4198
18:02:04.501020, 384.6725, 4192
18:02:04.501092, 384.675, 4191
18:02:04.501136, 384.6775, 4173
18:02:04.501177, 384.68, 4110
18:02:04.527596, 384.6825, 4197
18:02:04.527674, 384.685, 4191
18:02:04.527734, 384.6875, 4164
18:02:04.527766, 384.69, 4163
18:02:04.527854, 384.6925, 4197
18:02:04.528199, 384.695, 4182
18:02:04.528225, 384.6975, 4087
18:02:04.528242, 384.7, 4185
18:02:04.528257, 384.7025, 4174
18:02:04.528529, 384.705, 4159
18:02:04.528549, 384.7075, 4168
18:02:04.528565, 384.71, 4167
18:02:04.528579, 384.7125, 4166
18:02:04.560748, 384.715, 4084
18:02:04.560843, 384.7175, 4173
18:02:04.560878, 384.72, 4179
18:02:04.560907, 384.7225, 4160
18:02:04.561417, 384.725, 4149
18:02:04.561449, 384.7275, 4164
18:02:04.561472, 384.73, 4171
18:02:04.561494, 384.7325, 4094
18:02:04.561919, 384.735, 4154
18:02:04.561948, 384.7375, 4149
18:02:04.561970, 384.74, 4150
18:02:04.561992, 384.7425, 4124
18:02:04.570692, 384.745, 4149
18:02:04.570733, 384.7475, 4155
18:02:04.570750, 384.75, 4038
18:02:04.570765, 384.7525, 4133
18:02:04.593086, 384.755, 4142
18:02:04.593151, 384.7575, 4136
18:02:04.593176, 384.76, 4108
18:02:04.593197, 384.7625, 4137
18:02:04.593559, 384.765, 4169
18:02:04.593593, 384.7675, 4077
18:02:04.593610, 384.77, 4156
18:02:04.593626, 384.7725, 4182
18:02:04.624599, 384.775, 4188
18:02:04.624695, 384.7775, 4167
18:02:04.624736, 384.78, 4192
18:02:04.624756, 384.7825, 4186
18:02:04.624835, 384.785, 4114
18:02:04.625187, 384.7875, 4206
18:02:04.625221, 384.79, 4191
18:02:04.625238, 384.7925, 4175
18:02:04.625253, 384.795, 4141
18:02:04.625530, 384.7975, 4153
18:02:04.625561, 384.8, 4141
18:02:04.625576, 384.8025, 4072
18:02:04.625591, 384.805, 4154
18:02:04.631983, 384.8075, 4158
18:02:04.632038, 384.81, 4136
18:02:04.632063, 384.8125, 4114
18:02:04.632087, 384.815, 4136
18:02:04.642603, 384.8175, 4144
18:02:04.642678, 384.82, 4067
18:02:04.642699, 384.8225, 4163
18:02:04.642719, 384.825, 4167
18:02:04.661569, 384.8275, 4175
18:02:04.661643, 384.83, 4157
18:02:04.661668, 384.8325, 4180
18:02:04.661721, 384.835, 4175
18:02:04.667493, 384.8375, 4091
18:02:04.667600, 384.84, 4174
18:02:04.667658, 384.8425, 4181
18:02:04.667710, 384.845, 4190
18:02:04.694988, 384.8475, 4175
18:02:04.695062, 384.85, 4188
18:02:04.695086, 384.8525, 4192
18:02:04.695106, 384.855, 4110
18:02:04.695466, 384.8575, 4191
18:02:04.695489, 384.86, 4185
18:02:04.695505, 384.8625, 4183
18:02:04.695519, 384.865, 4161
18:02:04.695776, 384.8675, 4189
18:02:04.695795, 384.87, 4187
18:02:04.695810, 384.8725, 4096
18:02:04.695824, 384.875, 4190
18:02:04.702266, 384.8775, 4202
18:02:04.702347, 384.88, 4198
18:02:04.702394, 384.8825, 4177
18:02:04.702437, 384.885, 4187
18:02:04.728364, 384.8875, 4188
18:02:04.728457, 384.89, 4094
18:02:04.728492, 384.8925, 4196
18:02:04.728525, 384.895, 4174
18:02:04.729070, 384.8975, 4174
18:02:04.729105, 384.9, 4188
18:02:04.729128, 384.9025, 4242
18:02:04.729150, 384.905, 4324
18:02:04.729171, 384.9075, 4297
18:02:04.736782, 384.91, 4418
18:02:04.736809, 384.9125, 4450
18:02:04.736824, 384.915, 4483
18:02:04.736838, 384.9175, 4426
18:02:04.759743, 384.92, 4290
18:02:04.759845, 384.9225, 4108
18:02:04.759871, 384.925, 3783
18:02:04.759891, 384.9275, 3566
18:02:04.760255, 384.93, 3271
18:02:04.760286, 384.9325, 2899
18:02:04.760301, 384.935, 2408
18:02:04.760316, 384.9375, 1947
18:02:04.763011, 384.94, 1682
18:02:04.763055, 384.9425, 1592
18:02:04.763083, 384.945, 1861
18:02:04.763109, 384.9475, 2352
18:02:04.792084, 384.95, 3237
18:02:04.792179, 384.9525, 4213
18:02:04.792207, 384.955, 4847
18:02:04.792229, 384.9575, 5054
18:02:04.792250, 384.96, 4968
18:02:04.792618, 384.9625, 4929
18:02:04.792652, 384.965, 4741
18:02:04.792667, 384.9675, 4630
18:02:04.798318, 384.97, 4556
18:02:04.798383, 384.9725, 4555
18:02:04.798436, 384.975, 4525
18:02:04.798477, 384.9775, 4421
18:02:04.798517, 384.98, 4499
18:02:04.807836, 384.9825, 4503
18:02:04.807891, 384.985, 4482
18:02:04.807920, 384.9875, 4480
18:02:04.807946, 384.99, 4507
18:02:04.828837, 384.9925, 4497
18:02:04.828903, 384.995, 4420
18:02:04.828958, 384.9975, 4484
18:02:04.828980, 385.0, 4474
18:02:04.833612, 385.0025, 4457
18:02:04.833705, 385.005, 4425
18:02:04.833756, 385.0075, 4434
18:02:04.833801, 385.01, 4409
18:02:04.842023, 385.0125, 4355
18:02:04.842089, 385.015, 4427
18:02:04.842679, 385.0175, 4400
18:02:04.842714, 385.02, 4389
18:02:04.861561, 385.0225, 4352
18:02:04.861672, 385.025, 4370
18:02:04.861699, 385.0275, 4353
18:02:04.861720, 385.03, 4297
18:02:04.862035, 385.0325, 4379
18:02:04.862058, 385.035, 4382
18:02:04.862074, 385.0375, 4345
18:02:04.862088, 385.04, 4334
18:02:04.868211, 385.0425, 4370
18:02:04.868268, 385.045, 4362
18:02:04.868304, 385.0475, 4260
18:02:04.868335, 385.05, 4316
18:02:04.893087, 385.0525, 4286
18:02:04.893229, 385.055, 4303
18:02:04.893308, 385.0575, 4269
18:02:04.893353, 385.06, 4297
18:02:04.894710, 385.0625, 4280
18:02:04.894757, 385.065, 4192
18:02:04.894780, 385.0675, 4274
18:02:04.894801, 385.07, 4271
18:02:04.903597, 385.0725, 4234
18:02:04.903640, 385.075, 4233
18:02:04.903666, 385.0775, 4246
18:02:04.903690, 385.08, 4253
18:02:04.903713, 385.0825, 4140
18:02:04.926180, 385.085, 4222
18:02:04.926287, 385.0875, 4230
18:02:04.926309, 385.09, 4227
18:02:04.926330, 385.0925, 4186
18:02:04.926708, 385.095, 4216
18:02:04.926739, 385.0975, 4231
18:02:04.926755, 385.1, 4152
18:02:04.926770, 385.1025, 4202
18:02:04.929305, 385.105, 4189
18:02:04.929348, 385.1075, 4180
18:02:04.929370, 385.11, 4160
18:02:04.929392, 385.1125, 4169
18:02:04.938569, 385.115, 4191
18:02:04.938667, 385.1175, 4101
18:02:04.938722, 385.12, 4174
18:02:04.938773, 385.1225, 4191
18:02:04.959898, 385.125, 4179
18:02:04.959980, 385.1275, 4158
18:02:04.960005, 385.13, 4179
18:02:04.960026, 385.1325, 4173
18:02:04.964691, 385.135, 4106
18:02:04.964766, 385.1375, 4160
18:02:04.964824, 385.14, 4178
18:02:04.964873, 385.1425, 4168
18:02:04.973445, 385.145, 4157
18:02:04.973528, 385.1475, 4187
18:02:04.973591, 385.15, 4162
18:02:04.973663, 385.1525, 4097
18:02:04.995373, 385.155, 4175
18:02:04.995442, 385.1575, 4202
18:02:04.995469, 385.16, 4171
18:02:04.995488, 385.1625, 4177
18:02:04.995866, 385.165, 4187
18:02:04.995893, 385.1675, 4180
18:02:04.995909, 385.17, 4084
18:02:04.995924, 385.1725, 4192
18:02:04.995939, 385.175, 4173
18:02:04.999181, 385.1775, 4192
18:02:04.999209, 385.18, 4152
18:02:04.999226, 385.1825, 4170
18:02:04.999241, 385.185, 4149
18:02:05.029800, 385.1875, 4091
18:02:05.029865, 385.19, 4160
18:02:05.029890, 385.1925, 4149
18:02:05.029914, 385.195, 4151
18:02:05.030304, 385.1975, 4131
18:02:05.030328, 385.2, 4156
18:02:05.030344, 385.2025, 4149
18:02:05.030359, 385.205, 4059
18:02:05.034638, 385.2075, 4150
18:02:05.034716, 385.21, 4147
18:02:05.034761, 385.2125, 4139
18:02:05.034802, 385.215, 4141
18:02:05.060990, 385.2175, 4136
18:02:05.061113, 385.22, 4146
18:02:05.061159, 385.2225, 4050
18:02:05.061222, 385.225, 4137
18:02:05.061939, 385.2275, 4128
18:02:05.061995, 385.23, 4119
18:02:05.062023, 385.2325, 4101
18:02:05.062050, 385.235, 4131
18:02:05.069654, 385.2375, 4138
18:02:05.069723, 385.24, 4041
18:02:05.069760, 385.2425, 4134
18:02:05.069793, 385.245, 4135
18:02:05.094382, 385.2475, 4133
18:02:05.094491, 385.25, 4156
18:02:05.094530, 385.2525, 4173
18:02:05.094572, 385.255, 4142
18:02:05.094649, 385.2575, 4085
18:02:05.095343, 385.26, 4199
18:02:05.095403, 385.2625, 4202
18:02:05.095436, 385.265, 4223
18:02:05.095467, 385.2675, 4187
18:02:05.096144, 385.27, 4226
18:02:05.096187, 385.2725, 4215
18:02:05.096213, 385.275, 4135
18:02:05.096239, 385.2775, 4220
18:02:05.105503, 385.28, 4241
18:02:05.105598, 385.2825, 4227
18:02:05.105656, 385.285, 4209
18:02:05.105710, 385.2875, 4248
18:02:05.128193, 385.29, 4251
18:02:05.128299, 385.2925, 4183
18:02:05.128325, 385.295, 4266
18:02:05.128349, 385.2975, 4271
18:02:05.130563, 385.3, 4278
18:02:05.130599, 385.3025, 4240
18:02:05.130620, 385.305, 4275
18:02:05.130636, 385.3075, 4260
18:02:05.140233, 385.31, 4163
18:02:05.140331, 385.3125, 4260
18:02:05.140391, 385.315, 4235
18:02:05.140444, 385.3175, 4239
18:02:05.140495, 385.32, 4225
18:02:05.164911, 385.3225, 4231
18:02:05.164974, 385.325, 4242
18:02:05.164999, 385.3275, 4153
18:02:05.165050, 385.33, 4231
18:02:05.165382, 385.3325, 4228
18:02:05.165408, 385.335, 4217
18:02:05.165425, 385.3375, 4186
18:02:05.165441, 385.34, 4224
18:02:05.165720, 385.3425, 4219
18:02:05.165741, 385.345, 4134
18:02:05.165757, 385.3475, 4197
18:02:05.165773, 385.35, 4206
18:02:05.200756, 385.3525, 4193
18:02:05.200828, 385.355, 4180
18:02:05.200861, 385.3575, 4216
18:02:05.200968, 385.36, 4211
18:02:05.202312, 385.3625, 4125
18:02:05.202426, 385.365, 4202
18:02:05.202510, 385.3675, 4199
18:02:05.202595, 385.37, 4187
18:02:05.203943, 385.3725, 4205
18:02:05.204046, 385.375, 4224
18:02:05.204133, 385.3775, 4205
18:02:05.204215, 385.38, 4130
18:02:05.210389, 385.3825, 4207
18:02:05.210460, 385.385, 4201
18:02:05.210494, 385.3875, 4208
18:02:05.210545, 385.39, 4170
18:02:05.229408, 385.3925, 4204
18:02:05.229512, 385.395, 4191
18:02:05.229540, 385.3975, 4114
18:02:05.229568, 385.4, 4167
18:02:05.229596, 385.4025, 4178
18:02:05.230041, 385.405, 4190
18:02:05.230069, 385.4075, 4157
18:02:05.230089, 385.41, 4173
18:02:05.230107, 385.4125, 4163
18:02:05.261134, 385.415, 4096
18:02:05.261275, 385.4175, 4172
18:02:05.261301, 385.42, 4177
18:02:05.261320, 385.4225, 4168
18:02:05.261704, 385.425, 4184
18:02:05.261735, 385.4275, 4207
18:02:05.261750, 385.43, 4194
18:02:05.261764, 385.4325, 4119
18:02:05.262013, 385.435, 4198
18:02:05.262034, 385.4375, 4195
18:02:05.262049, 385.44, 4187
18:02:05.262105, 385.4425, 4137
18:02:05.270970, 385.445, 4192
18:02:05.271036, 385.4475, 4207
18:02:05.271069, 385.45, 4090
18:02:05.271098, 385.4525, 4158
18:02:05.294393, 385.455, 4153
18:02:05.294480, 385.4575, 4171
18:02:05.294502, 385.46, 4129
18:02:05.294522, 385.4625, 4154
18:02:05.297068, 385.465, 4168
18:02:05.297108, 385.4675, 4106
18:02:05.297124, 385.47, 4188
18:02:05.297138, 385.4725, 4173
18:02:05.305959, 385.475, 4189
18:02:05.306021, 385.4775, 4188
18:02:05.306055, 385.48, 4183
18:02:05.306084, 385.4825, 4148
18:02:05.306113, 385.485, 4085
18:02:05.333099, 385.4875, 4172
18:02:05.333154, 385.49, 4164
18:02:05.333176, 385.4925, 4166
18:02:05.333198, 385.495, 4157
18:02:05.333934, 385.4975, 4166
18:02:05.333961, 385.5, 4165
18:02:05.333978, 385.5025, 4082
18:02:05.333993, 385.505, 4183
18:02:05.336100, 385.5075, 4156
18:02:05.336192, 385.51, 4164
18:02:05.336249, 385.5125, 4159
18:02:05.336301, 385.515, 4166
18:02:05.341276, 385.5175, 4175
18:02:05.341366, 385.52, 4095
18:02:05.341421, 385.5225, 4183
18:02:05.341471, 385.525, 4177
18:02:05.361481, 385.5275, 4183
18:02:05.361583, 385.53, 4160
18:02:05.361618, 385.5325, 4198
18:02:05.361706, 385.535, 4207
18:02:05.366979, 385.5375, 4113
18:02:05.367030, 385.54, 4178
18:02:05.367055, 385.5425, 4144
18:02:05.367078, 385.545, 4150
18:02:05.375868, 385.5475, 4121
18:02:05.375909, 385.55, 4179
18:02:05.375929, 385.5525, 4166
18:02:05.375947, 385.555, 4080
18:02:05.395698, 385.5575, 4146
18:02:05.395829, 385.56, 4145
18:02:05.395897, 385.5625, 4158
18:02:05.395940, 385.565, 4138
18:02:05.395983, 385.5675, 4167
18:02:05.396742, 385.57, 4172
18:02:05.396802, 385.5725, 4086
18:02:05.396836, 385.575, 4176
18:02:05.396868, 385.5775, 4176
18:02:05.411610, 385.58, 4174
18:02:05.411663, 385.5825, 4125
18:02:05.411683, 385.585, 4138
18:02:05.411701, 385.5875, 4140
18:02:05.428594, 385.59, 4075
18:02:05.428668, 385.5925, 4183
18:02:05.428700, 385.595, 4158
18:02:05.428727, 385.5975, 4141
18:02:05.429148, 385.6, 4152
18:02:05.429181, 385.6025, 4179
18:02:05.429197, 385.605, 4145
18:02:05.429212, 385.6075, 4044
18:02:05.437275, 385.61, 4153
18:02:05.437356, 385.6125, 4177
18:02:05.437402, 385.615, 4157
18:02:05.437443, 385.6175, 4139
18:02:05.448472, 385.62, 4158
18:02:05.448551, 385.6225, 4171
18:02:05.448597, 385.625, 4082
18:02:05.448635, 385.6275, 4174
18:02:05.467825, 385.63, 4161
18:02:05.467926, 385.6325, 4154
18:02:05.467978, 385.635, 4138
18:02:05.468022, 385.6375, 4157
18:02:05.472509, 385.64, 4166
18:02:05.472603, 385.6425, 4084
18:02:05.472662, 385.645, 4168
18:02:05.472714, 385.6475, 4164
18:02:05.472766, 385.65, 4146
18:02:05.498639, 385.6525, 4153
18:02:05.498701, 385.655, 4157
18:02:05.498724, 385.6575, 4167
18:02:05.498743, 385.66, 4074
18:02:05.499097, 385.6625, 4152
18:02:05.499119, 385.665, 4160
18:02:05.499135, 385.6675, 4157
18:02:05.499149, 385.67, 4142
18:02:05.499408, 385.6725, 4158
18:02:05.499428, 385.675, 4146
18:02:05.499442, 385.6775, 4048
18:02:05.499457, 385.68, 4164
18:02:05.530223, 385.6825, 4136
18:02:05.530319, 385.685, 4162
18:02:05.530344, 385.6875, 4134
18:02:05.530365, 385.69, 4182
18:02:05.530744, 385.6925, 4187
18:02:05.530775, 385.695, 4145
18:02:05.530792, 385.6975, 4192
18:02:05.530808, 385.7, 4186
18:02:05.533069, 385.7025, 4152
18:02:05.533106, 385.705, 4137
18:02:05.533130, 385.7075, 4162
18:02:05.533153, 385.71, 4176
18:02:05.541832, 385.7125, 4092
18:02:05.541867, 385.715, 4173
18:02:05.541886, 385.7175, 4175
18:02:05.541901, 385.72, 4164
18:02:05.541917, 385.7225, 4156
18:02:05.563228, 385.725, 4182
18:02:05.563339, 385.7275, 4172
18:02:05.563376, 385.73, 4074
18:02:05.563409, 385.7325, 4174
18:02:05.563963, 385.735, 4174
18:02:05.564013, 385.7375, 4164
18:02:05.564038, 385.74, 4156
18:02:05.564061, 385.7425, 4169
18:02:05.568090, 385.745, 4173
18:02:05.568130, 385.7475, 4093
18:02:05.568156, 385.75, 4167
18:02:05.568180, 385.7525, 4181
18:02:05.598453, 385.755, 4180
18:02:05.598518, 385.7575, 4159
18:02:05.598542, 385.76, 4185
18:02:05.598565, 385.7625, 4169
18:02:05.599040, 385.765, 4095
18:02:05.599084, 385.7675, 4152
18:02:05.599152, 385.77, 4165
18:02:05.599184, 385.7725, 4155
18:02:05.603174, 385.775, 4138
18:02:05.603219, 385.7775, 4142
18:02:05.603248, 385.78, 4144
18:02:05.603276, 385.7825, 4061
18:02:05.612861, 385.785, 4149
18:02:05.612974, 385.7875, 4197
18:02:05.613031, 385.79, 4183
18:02:05.613143, 385.7925, 4167
18:02:05.613198, 385.795, 4178
18:02:05.634384, 385.7975, 4151
18:02:05.634437, 385.8, 4051
18:02:05.634457, 385.8025, 4157
18:02:05.634501, 385.805, 4154
18:02:05.634782, 385.8075, 4160
18:02:05.634802, 385.81, 4140
18:02:05.634816, 385.8125, 4157
18:02:05.634829, 385.815, 4168
18:02:05.663432, 385.8175, 4058
18:02:05.663517, 385.82, 4143
18:02:05.663537, 385.8225, 4168
18:02:05.663553, 385.825, 4156
18:02:05.663851, 385.8275, 4140
18:02:05.663882, 385.83, 4181
18:02:05.663896, 385.8325, 4176
18:02:05.663910, 385.835, 4102
18:02:05.675413, 385.8375, 4170
18:02:05.675443, 385.84, 4169
18:02:05.675460, 385.8425, 4169
18:02:05.675474, 385.845, 4144
18:02:05.676532, 385.8475, 4151
18:02:05.676554, 385.85, 4159
18:02:05.676568, 385.8525, 4078
18:02:05.676581, 385.855, 4178
18:02:05.697286, 385.8575, 4184
18:02:05.697380, 385.86, 4175
18:02:05.697437, 385.8625, 4085
18:02:05.697463, 385.865, 4199
18:02:05.735748, 385.8675, 4180
18:02:05.735835, 385.87, 4089
18:02:05.735873, 385.8725, 4179
18:02:05.735906, 385.875, 4184
18:02:05.736992, 385.8775, 4166
18:02:05.737039, 385.88, 4152
18:02:05.737071, 385.8825, 4150
18:02:05.737102, 385.885, 4171
18:02:05.737134, 385.8875, 4080
18:02:05.738266, 385.89, 4181
18:02:05.738313, 385.8925, 4173
18:02:05.738346, 385.895, 4182
18:02:05.738377, 385.8975, 4143
18:02:05.741268, 385.9, 4157
18:02:05.741331, 385.9025, 4135
18:02:05.741365, 385.905, 4030
18:02:05.741397, 385.9075, 4113
18:02:05.743611, 385.91, 4116
18:02:05.743640, 385.9125, 4079
18:02:05.743659, 385.915, 3956
18:02:05.743677, 385.9175, 4133
18:02:05.745213, 385.92, 4161
18:02:05.745278, 385.9225, 4089
18:02:05.745306, 385.925, 4163
18:02:05.745326, 385.9275, 4136
18:02:05.763690, 385.93, 4131
18:02:05.763798, 385.9325, 4142
18:02:05.763849, 385.935, 4180
18:02:05.763883, 385.9375, 4187
18:02:05.781213, 385.94, 4113
18:02:05.781289, 385.9425, 4177
18:02:05.781318, 385.945, 4175
18:02:05.781354, 385.9475, 4168
18:02:05.799298, 385.95, 4161
18:02:05.799378, 385.9525, 4201
18:02:05.799403, 385.955, 4193
18:02:05.799424, 385.9575, 4092
18:02:05.811246, 385.96, 4166
18:02:05.811334, 385.9625, 4151
18:02:05.811351, 385.965, 4154
18:02:05.811370, 385.9675, 4077
18:02:05.811389, 385.97, 4181
18:02:05.813085, 385.9725, 4180
18:02:05.813147, 385.975, 4095
18:02:05.813165, 385.9775, 4177
18:02:05.813182, 385.98, 4162
18:02:05.832988, 385.9825, 4145
18:02:05.833072, 385.985, 4113
18:02:05.833095, 385.9875, 4167
18:02:05.833117, 385.99, 4172
18:02:05.833484, 385.9925, 4080
18:02:05.833512, 385.995, 4088
18:02:05.833527, 385.9975, 4230
18:02:05.833543, 386.0, 4239
18:02:05.833810, 386.0025, 4310
18:02:05.833829, 386.005, 4391
18:02:05.833845, 386.0075, 4391
18:02:05.833860, 386.01, 4361
18:02:05.866179, 386.0125, 4467
18:02:05.866266, 386.015, 4472
18:02:05.866298, 386.0175, 4335
18:02:05.866325, 386.02, 4142
18:02:05.866799, 386.0225, 3895
18:02:05.866829, 386.025, 3607
18:02:05.866876, 386.0275, 3204
18:02:05.866899, 386.03, 2881
18:02:05.867266, 386.0325, 2440
18:02:05.867293, 386.035, 1905
18:02:05.867314, 386.0375, 1585
18:02:05.867334, 386.04, 1633
18:02:05.875083, 386.0425, 1714
18:02:05.875120, 386.045, 2153
18:02:05.875136, 386.0475, 3121
18:02:05.875150, 386.05, 4034
18:02:05.899967, 386.0525, 4663
18:02:05.900046, 386.055, 4915
18:02:05.900082, 386.0575, 4932
18:02:05.900110, 386.06, 4801
18:02:05.900150, 386.0625, 4581
18:02:05.900487, 386.065, 4554
18:02:05.900509, 386.0675, 4527
18:02:05.900525, 386.07, 4523
18:02:05.900540, 386.0725, 4482
18:02:05.900927, 386.075, 4506
18:02:05.900947, 386.0775, 4505
18:02:05.900963, 386.08, 4434
18:02:05.900978, 386.0825, 4517
18:02:05.909834, 386.085, 4533
18:02:05.909908, 386.0875, 4516
18:02:05.909958, 386.09, 4503
18:02:05.910032, 386.0925, 4517
18:02:05.931961, 386.095, 4501
18:02:05.932099, 386.0975, 4403
18:02:05.932129, 386.1, 4447
18:02:05.932149, 386.1025, 4439
18:02:05.935793, 386.105, 4427
18:02:05.935838, 386.1075, 4395
18:02:05.935860, 386.11, 4431
18:02:05.935881, 386.1125, 4425
18:02:05.944988, 386.115, 4344
18:02:05.945074, 386.1175, 4398
18:02:05.945123, 386.12, 4382
18:02:05.945169, 386.1225, 4367
18:02:05.966788, 386.125, 4332
18:02:05.966847, 386.1275, 4356
18:02:05.966877, 386.13, 4354
18:02:05.966899, 386.1325, 4242
18:02:05.967226, 386.135, 4328
18:02:05.967248, 386.1375, 4321
18:02:05.967263, 386.14, 4312
18:02:05.967277, 386.1425, 4311
18:02:05.970661, 386.145, 4332
18:02:05.970685, 386.1475, 4313
18:02:05.970700, 386.15, 4239
18:02:05.970715, 386.1525, 4323
18:02:05.980696, 386.155, 4315
18:02:05.980747, 386.1575, 4309
18:02:05.980776, 386.16, 4282
18:02:05.980796, 386.1625, 4289
18:02:06.008081, 386.165, 4283
18:02:06.008166, 386.1675, 4191
18:02:06.008201, 386.17, 4282
18:02:06.008231, 386.1725, 4245
18:02:06.009269, 386.175, 4251
18:02:06.009309, 386.1775, 4253
18:02:06.009338, 386.18, 4240
18:02:06.009368, 386.1825, 4215
18:02:06.009396, 386.185, 4137
18:02:06.032148, 386.1875, 4232
18:02:06.032273, 386.19, 4222
18:02:06.032309, 386.1925, 4181
18:02:06.032340, 386.195, 4117
18:02:06.032895, 386.1975, 4200
18:02:06.032944, 386.2, 4195
18:02:06.032969, 386.2025, 4123
18:02:06.032992, 386.205, 4201
18:02:06.033405, 386.2075, 4199
18:02:06.033442, 386.21, 4217
18:02:06.033466, 386.2125, 4187
18:02:06.033489, 386.215, 4210
18:02:06.065120, 386.2175, 4195
18:02:06.065202, 386.22, 4107
18:02:06.065245, 386.2225, 4219
18:02:06.065266, 386.225, 4229
18:02:06.065605, 386.2275, 4206
18:02:06.065633, 386.23, 4203
18:02:06.065647, 386.2325, 4224
18:02:06.065662, 386.235, 4227
18:02:06.065676, 386.2375, 4151
18:02:06.066806, 386.24, 4224
18:02:06.066862, 386.2425, 4203
18:02:06.066897, 386.245, 4198
18:02:06.066924, 386.2475, 4176
18:02:06.076386, 386.25, 4199
18:02:06.076497, 386.2525, 4194
18:02:06.076555, 386.255, 4101
18:02:06.076609, 386.2575, 4211
18:02:06.100589, 386.26, 4209
18:02:06.100684, 386.2625, 4207
18:02:06.100713, 386.265, 4190
18:02:06.100735, 386.2675, 4195
18:02:06.101092, 386.27, 4214
18:02:06.101116, 386.2725, 4140
18:02:06.101132, 386.275, 4210
18:02:06.101148, 386.2775, 4221
18:02:06.111351, 386.28, 4219
18:02:06.111445, 386.2825, 4147
18:02:06.111501, 386.285, 4242
18:02:06.111553, 386.2875, 4238
18:02:06.111628, 386.29, 4154
18:02:06.135920, 386.2925, 4223
18:02:06.136013, 386.295, 4222
18:02:06.136038, 386.2975, 4227
18:02:06.136367, 386.3, 4180
18:02:06.136394, 386.3025, 4234
18:02:06.136410, 386.305, 4227
18:02:06.136425, 386.3075, 4163
18:02:06.167157, 386.31, 4213
18:02:06.167274, 386.3125, 4209
18:02:06.167300, 386.315, 4200
18:02:06.167320, 386.3175, 4111
18:02:06.167648, 386.32, 4198
18:02:06.167678, 386.3225, 4185
18:02:06.167693, 386.325, 4085
18:02:06.167706, 386.3275, 4164
18:02:06.167720, 386.33, 4151
18:02:06.167968, 386.3325, 4121
18:02:06.167986, 386.335, 4027
18:02:06.168000, 386.3375, 4120
18:02:06.168014, 386.34, 4105
18:02:06.171779, 386.3425, 4022
18:02:06.171803, 386.345, 4106
18:02:06.171818, 386.3475, 4113
18:02:06.171832, 386.35, 4096
18:02:06.201151, 386.3525, 4112
18:02:06.201275, 386.355, 4105
18:02:06.201311, 386.3575, 4116
18:02:06.201364, 386.36, 4032
18:02:06.201839, 386.3625, 4148
18:02:06.201873, 386.365, 4133
18:02:06.201896, 386.3675, 4137
18:02:06.201916, 386.37, 4138
18:02:06.202262, 386.3725, 4160
18:02:06.202288, 386.375, 4166
18:02:06.202308, 386.3775, 4085
18:02:06.202328, 386.38, 4177
18:02:06.207069, 386.3825, 4185
18:02:06.207120, 386.385, 4167
18:02:06.207151, 386.3875, 4150
18:02:06.207181, 386.39, 4186
18:02:06.236072, 386.3925, 4185
18:02:06.236156, 386.395, 4105
18:02:06.236189, 386.3975, 4197
18:02:06.236217, 386.4, 4197
18:02:06.236691, 386.4025, 4206
18:02:06.236711, 386.405, 4196
18:02:06.236725, 386.4075, 4199
18:02:06.236738, 386.41, 4199
18:02:06.236752, 386.4125, 4116
18:02:06.242443, 386.415, 4195
18:02:06.242533, 386.4175, 4172
18:02:06.242578, 386.42, 4155
18:02:06.242619, 386.4225, 4152
18:02:06.268398, 386.425, 4177
18:02:06.268470, 386.4275, 4185
18:02:06.268494, 386.43, 4114
18:02:06.268514, 386.4325, 4188
18:02:06.268851, 386.435, 4173
18:02:06.268877, 386.4375, 4170
18:02:06.268892, 386.44, 4136
18:02:06.268906, 386.4425, 4172
18:02:06.269152, 386.445, 4175
18:02:06.269171, 386.4475, 4123
18:02:06.269185, 386.45, 4181
18:02:06.269199, 386.4525, 4172
18:02:06.303880, 386.455, 4174
18:02:06.303935, 386.4575, 4169
18:02:06.303985, 386.46, 4159
18:02:06.304009, 386.4625, 4160
18:02:06.304030, 386.465, 4067
18:02:06.304342, 386.4675, 4146
18:02:06.304366, 386.47, 4152
18:02:06.304382, 386.4725, 4141
18:02:06.304397, 386.475, 4098
18:02:06.304662, 386.4775, 4127
18:02:06.304682, 386.48, 4128
18:02:06.304703, 386.4825, 4078
18:02:06.304719, 386.485, 4132
18:02:06.312791, 386.4875, 4141
18:02:06.312893, 386.49, 4134
18:02:06.312950, 386.4925, 4112
18:02:06.313000, 386.495, 4138
18:02:06.337668, 386.4975, 4143
18:02:06.337732, 386.5, 4051
18:02:06.337754, 386.5025, 4131
18:02:06.337774, 386.505, 4140
18:02:06.338109, 386.5075, 4142
18:02:06.338131, 386.51, 4122
18:02:06.338147, 386.5125, 4140
18:02:06.338162, 386.515, 4134
18:02:06.347041, 386.5175, 4066
18:02:06.347088, 386.52, 4154
18:02:06.347117, 386.5225, 4135
18:02:06.347143, 386.525, 4126
18:02:06.367831, 386.5275, 4108
18:02:06.367945, 386.53, 4148
18:02:06.367984, 386.5325, 4136
18:02:06.368016, 386.535, 4054
18:02:06.368607, 386.5375, 4131
18:02:06.368655, 386.54, 4120
18:02:06.368681, 386.5425, 4124
18:02:06.368706, 386.545, 4091
18:02:06.373090, 386.5475, 4114
18:02:06.373131, 386.55, 4133
18:02:06.373157, 386.5525, 4027
18:02:06.373181, 386.555, 4129
18:02:06.382389, 386.5575, 4133
18:02:06.382436, 386.56, 4134
18:02:06.382456, 386.5625, 4121
18:02:06.382474, 386.565, 4150
18:02:06.402796, 386.5675, 4152
18:02:06.402905, 386.57, 4081
18:02:06.402954, 386.5725, 4161
18:02:06.402985, 386.575, 4168
18:02:06.408616, 386.5775, 4148
18:02:06.408706, 386.58, 4150
18:02:06.408763, 386.5825, 4169
18:02:06.408813, 386.585, 4148
18:02:06.408864, 386.5875, 4074
18:02:06.418545, 386.59, 4165
18:02:06.419523, 386.5925, 4154
18:02:06.419640, 386.595, 4153
18:02:06.419675, 386.5975, 4153
18:02:06.436758, 386.6, 4163
18:02:06.436828, 386.6025, 4152
18:02:06.436852, 386.605, 4078
18:02:06.436871, 386.6075, 4165
18:02:06.437223, 386.61, 4153
18:02:06.437246, 386.6125, 4157
18:02:06.437262, 386.615, 4138
18:02:06.437277, 386.6175, 4152
18:02:06.470296, 386.62, 4154
18:02:06.470352, 386.6225, 4057
18:02:06.470374, 386.625, 4151
18:02:06.470421, 386.6275, 4150
18:02:06.470733, 386.63, 4154
18:02:06.470755, 386.6325, 4124
18:02:06.470771, 386.635, 4151
18:02:06.470785, 386.6375, 4145
18:02:06.471068, 386.64, 4054
18:02:06.471090, 386.6425, 4139
18:02:06.471105, 386.645, 4140
18:02:06.471119, 386.6475, 4114
18:02:06.471134, 386.65, 4102
18:02:06.478180, 386.6525, 4135
18:02:06.478232, 386.655, 4120
18:02:06.478265, 386.6575, 4071
18:02:06.478294, 386.66, 4132
18:02:06.507891, 386.6625, 4146
18:02:06.507946, 386.665, 4147
18:02:06.507969, 386.6675, 4145
18:02:06.507989, 386.67, 4177
18:02:06.508328, 386.6725, 4159
18:02:06.508354, 386.675, 4090
18:02:06.508370, 386.6775, 4169
18:02:06.508384, 386.68, 4198
18:02:06.513188, 386.6825, 4161
18:02:06.513251, 386.685, 4140
18:02:06.513285, 386.6875, 4166
18:02:06.513315, 386.69, 4151
18:02:06.534368, 386.6925, 4064
18:02:06.534448, 386.695, 4155
18:02:06.534472, 386.6975, 4158
18:02:06.534494, 386.7, 4155
18:02:06.534982, 386.7025, 4130
18:02:06.535038, 386.705, 4167
18:02:06.535066, 386.7075, 4192
18:02:06.535089, 386.71, 4095
18:02:06.539473, 386.7125, 4190
18:02:06.539524, 386.715, 4192
18:02:06.539552, 386.7175, 4174
18:02:06.539578, 386.72, 4156
18:02:06.547904, 386.7225, 4171
18:02:06.547937, 386.725, 4172
18:02:06.547952, 386.7275, 4097
18:02:06.547966, 386.73, 4178
18:02:06.547980, 386.7325, 4193
18:02:06.567740, 386.735, 4176
18:02:06.567813, 386.7375, 4170
18:02:06.567846, 386.74, 4195
18:02:06.567865, 386.7425, 4196
18:02:06.575046, 386.745, 4118
18:02:06.575093, 386.7475, 4201
18:02:06.575120, 386.75, 4196
18:02:06.575181, 386.7525, 4183
18:02:06.584662, 386.755, 4183
18:02:06.584708, 386.7575, 4177
18:02:06.584727, 386.76, 4181
18:02:06.584745, 386.7625, 4111
18:02:06.606979, 386.765, 4200
18:02:06.607045, 386.7675, 4185
18:02:06.607071, 386.77, 4185
18:02:06.607093, 386.7725, 4187
18:02:06.607478, 386.775, 4173
18:02:06.607502, 386.7775, 4158
18:02:06.607520, 386.78, 4081
18:02:06.607537, 386.7825, 4177
18:02:06.609538, 386.785, 4188
18:02:06.609572, 386.7875, 4184
18:02:06.609606, 386.79, 4101
18:02:06.609626, 386.7925, 4208
18:02:06.638033, 386.795, 4197
18:02:06.638097, 386.7975, 4113
18:02:06.638121, 386.8, 4198
18:02:06.638142, 386.8025, 4189
18:02:06.638162, 386.805, 4189
18:02:06.638527, 386.8075, 4178
18:02:06.638550, 386.81, 4170
18:02:06.638566, 386.8125, 4184
18:02:06.638582, 386.815, 4091
18:02:06.644330, 386.8175, 4192
18:02:06.644361, 386.82, 4171
18:02:06.644379, 386.8225, 4167
18:02:06.644394, 386.825, 4150
18:02:06.670135, 386.8275, 4154
18:02:06.670231, 386.83, 4136
18:02:06.670266, 386.8325, 4053
18:02:06.670297, 386.835, 4182
18:02:06.670795, 386.8375, 4181
18:02:06.670827, 386.84, 4177
18:02:06.670880, 386.8425, 4163
18:02:06.670906, 386.845, 4190
18:02:06.679794, 386.8475, 4165
18:02:06.679834, 386.85, 4100
18:02:06.679851, 386.8525, 4193
18:02:06.679865, 386.855, 4161
18:02:06.704429, 386.8575, 4185
18:02:06.704541, 386.86, 4176
18:02:06.704597, 386.8625, 4182
18:02:06.704625, 386.865, 4166
18:02:06.705029, 386.8675, 4093
18:02:06.705058, 386.87, 4162
18:02:06.705078, 386.8725, 4174
18:02:06.705098, 386.875, 4154
18:02:06.705615, 386.8775, 4142
18:02:06.705641, 386.88, 4179
18:02:06.705662, 386.8825, 4171
18:02:06.705681, 386.885, 4083
18:02:06.738531, 386.8875, 4168
18:02:06.738622, 386.89, 4162
18:02:06.738658, 386.8925, 4184
18:02:06.738689, 386.895, 4141
18:02:06.739099, 386.8975, 4168
18:02:06.739123, 386.9, 4185
18:02:06.739139, 386.9025, 4131
18:02:06.739154, 386.905, 4153
18:02:06.739169, 386.9075, 4164
18:02:06.740534, 386.91, 4153
18:02:06.740556, 386.9125, 4076
18:02:06.740571, 386.915, 4166
18:02:06.740586, 386.9175, 4179
18:02:06.749872, 386.92, 4102
18:02:06.749912, 386.9225, 4193
18:02:06.749931, 386.925, 4197
18:02:06.749950, 386.9275, 4180
18:02:06.772014, 386.93, 4155
18:02:06.772077, 386.9325, 4174
18:02:06.772100, 386.935, 4175
18:02:06.772121, 386.9375, 4099
18:02:06.772520, 386.94, 4183
18:02:06.772548, 386.9425, 4175
18:02:06.772564, 386.945, 4183
18:02:06.772579, 386.9475, 4145
18:02:06.776211, 386.95, 4176
18:02:06.776302, 386.9525, 4152
18:02:06.776356, 386.955, 4061
18:02:06.776437, 386.9575, 4154
18:02:06.785363, 386.96, 4161
18:02:06.785521, 386.9625, 4178
18:02:06.785558, 386.965, 4156
18:02:06.785598, 386.9675, 4172
18:02:06.813900, 386.97, 4164
18:02:06.813980, 386.9725, 4095
18:02:06.814038, 386.975, 4180
18:02:06.814071, 386.9775, 4165
18:02:06.815008, 386.98, 4162
18:02:06.815086, 386.9825, 4151
18:02:06.815140, 386.985, 4160
18:02:06.815192, 386.9875, 4172
18:02:06.835467, 386.99, 4135
18:02:06.835555, 386.9925, 4173
18:02:06.835580, 386.995, 4170
18:02:06.835636, 386.9975, 4165
18:02:06.835682, 387.0, 4124
18:02:06.836152, 387.0025, 4155
18:02:06.836189, 387.005, 4166
18:02:06.836206, 387.0075, 4076
18:02:06.836221, 387.01, 4158
18:02:06.836873, 387.0125, 4192
18:02:06.836905, 387.015, 4195
18:02:06.836922, 387.0175, 4166
18:02:06.836937, 387.02, 4148
18:02:06.845697, 387.0225, 4131
18:02:06.845741, 387.025, 4029
18:02:06.845759, 387.0275, 4125
18:02:06.845774, 387.03, 4146
18:02:06.874399, 387.0325, 4109
18:02:06.874469, 387.035, 4063
18:02:06.874512, 387.0375, 4104
18:02:06.874537, 387.04, 4111
18:02:06.882899, 387.0425, 4074
18:02:06.882967, 387.045, 4173
18:02:06.882988, 387.0475, 4157
18:02:06.883005, 387.05, 4168
18:02:06.885197, 387.0525, 4172
18:02:06.885321, 387.055, 4196
18:02:06.885356, 387.0575, 4211
18:02:06.885386, 387.06, 4112
18:02:06.905285, 387.0625, 4217
18:02:06.905383, 387.065, 4221
18:02:06.905445, 387.0675, 4184
18:02:06.905500, 387.07, 4098
18:02:06.906355, 387.0725, 4203
18:02:06.906402, 387.075, 4187
18:02:06.906442, 387.0775, 4097
18:02:06.906479, 387.08, 4187
18:02:06.907581, 387.0825, 4186
18:02:06.907664, 387.085, 4183
18:02:06.907734, 387.0875, 4171
18:02:06.907801, 387.09, 4200
18:02:06.938229, 387.0925, 4199
18:02:06.938393, 387.095, 4142
18:02:06.938441, 387.0975, 4209
18:02:06.938501, 387.1, 4203
18:02:06.938537, 387.1025, 4192
18:02:06.939140, 387.105, 4155
18:02:06.939222, 387.1075, 4171
18:02:06.939276, 387.11, 4163
18:02:06.939330, 387.1125, 4081
18:02:06.942407, 387.115, 4173
18:02:06.942497, 387.1175, 4182
18:02:06.942585, 387.12, 4198
18:02:06.942661, 387.1225, 4160
18:02:06.953038, 387.125, 4340
18:02:06.953188, 387.1275, 4399
18:02:06.953340, 387.13, 4332
18:02:06.971471, 387.1325, 4434
18:02:06.972190, 387.135, 4483
18:02:06.972244, 387.1375, 4431
18:02:06.972274, 387.14, 4271
18:02:06.972300, 387.1425, 4077
18:02:06.972789, 387.145, 3842
18:02:06.972829, 387.1475, 3444
18:02:06.972855, 387.15, 3250
18:02:06.972880, 387.1525, 2856
18:02:07.004222, 387.155, 2407
18:02:07.004324, 387.1575, 1970
18:02:07.004363, 387.16, 1785
18:02:07.004396, 387.1625, 1759
18:02:07.004428, 387.165, 1918
18:02:07.005104, 387.1675, 2523
18:02:07.005162, 387.17, 3412
18:02:07.005186, 387.1725, 4287
18:02:07.005581, 387.175, 4773
18:02:07.005614, 387.1775, 5017
18:02:07.005636, 387.18, 5016
18:02:07.005668, 387.1825, 4851
18:02:07.005683, 387.185, 4774
18:02:07.012164, 387.1875, 4619
18:02:07.012215, 387.19, 4565
18:02:07.012243, 387.1925, 4539
18:02:07.012269, 387.195, 4515
18:02:07.037408, 387.1975, 4493
18:02:07.037545, 387.2, 4403
18:02:07.037599, 387.2025, 4495
18:02:07.037632, 387.205, 4502
18:02:07.038279, 387.2075, 4513
18:02:07.038339, 387.21, 4495
18:02:07.038367, 387.2125, 4517
18:02:07.038391, 387.215, 4502
18:02:07.047388, 387.2175, 4404
18:02:07.047490, 387.22, 4467
18:02:07.047542, 387.2225, 4464
18:02:07.047588, 387.225, 4450
18:02:07.070367, 387.2275, 4415
18:02:07.070455, 387.23, 4457
18:02:07.070481, 387.2325, 4438
18:02:07.070502, 387.235, 4352
18:02:07.070922, 387.2375, 4410
18:02:07.070978, 387.24, 4400
18:02:07.071001, 387.2425, 4386
18:02:07.071024, 387.245, 4350
18:02:07.073286, 387.2475, 4358
18:02:07.073328, 387.25, 4357
18:02:07.073351, 387.2525, 4254
18:02:07.073372, 387.255, 4352
18:02:07.073393, 387.2575, 4363
18:02:07.082428, 387.26, 4348
18:02:07.082516, 387.2625, 4334
18:02:07.082572, 387.265, 4343
18:02:07.082624, 387.2675, 4340
18:02:07.106412, 387.27, 4256
18:02:07.106509, 387.2725, 4334
18:02:07.106546, 387.275, 4334
18:02:07.106576, 387.2775, 4336
18:02:07.108181, 387.28, 4310
18:02:07.108216, 387.2825, 4319
18:02:07.108240, 387.285, 4305
18:02:07.108263, 387.2875, 4217
18:02:07.117170, 387.29, 4306
18:02:07.117244, 387.2925, 4290
18:02:07.117281, 387.295, 4299
18:02:07.117317, 387.2975, 4292
18:02:07.141406, 387.3, 4299
18:02:07.141500, 387.3025, 4287
18:02:07.141562, 387.305, 4222
18:02:07.141596, 387.3075, 4293
18:02:07.142126, 387.31, 4243
18:02:07.142160, 387.3125, 4238
18:02:07.142184, 387.315, 4228
18:02:07.142206, 387.3175, 4256
18:02:07.143743, 387.32, 4250
18:02:07.143812, 387.3225, 4178
18:02:07.143865, 387.325, 4249
18:02:07.143915, 387.3275, 4271
18:02:07.174823, 387.33, 4275
18:02:07.174926, 387.3325, 4239
18:02:07.174968, 387.335, 4239
18:02:07.175028, 387.3375, 4240
18:02:07.175196, 387.34, 4161
18:02:07.176020, 387.3425, 4240
18:02:07.176082, 387.345, 4231
18:02:07.176125, 387.3475, 4220
18:02:07.176167, 387.35, 4206
18:02:07.178346, 387.3525, 4247
18:02:07.178401, 387.355, 4220
18:02:07.178444, 387.3575, 4155
18:02:07.178483, 387.36, 4234
18:02:07.187194, 387.3625, 4225
18:02:07.187247, 387.365, 4216
18:02:07.187269, 387.3675, 4180
18:02:07.187289, 387.37, 4213
18:02:07.207568, 387.3725, 4207
18:02:07.207687, 387.375, 4115
18:02:07.207720, 387.3775, 4210
18:02:07.207747, 387.38, 4221
18:02:07.237963, 387.3825, 4227
18:02:07.238061, 387.385, 4224
18:02:07.238093, 387.3875, 4214
18:02:07.238122, 387.39, 4210
18:02:07.238668, 387.3925, 4137
18:02:07.238716, 387.395, 4218
18:02:07.238741, 387.3975, 4231
18:02:07.238764, 387.4, 4213
18:02:07.239186, 387.4025, 4190
18:02:07.239231, 387.405, 4212
18:02:07.239254, 387.4075, 4210
18:02:07.239332, 387.41, 4121
18:02:07.239741, 387.4125, 4207
18:02:07.239777, 387.415, 4221
18:02:07.239800, 387.4175, 4180
18:02:07.239821, 387.42, 4162
18:02:07.248272, 387.4225, 4203
18:02:07.248367, 387.425, 4198
18:02:07.248416, 387.4275, 4118
18:02:07.248464, 387.43, 4203
18:02:07.271797, 387.4325, 4195
18:02:07.271995, 387.435, 4184
18:02:07.272049, 387.4375, 4160
18:02:07.272108, 387.44, 4181
18:02:07.272217, 387.4425, 4150
18:02:07.275285, 387.445, 4103
18:02:07.275357, 387.4475, 4188
18:02:07.275393, 387.45, 4179
18:02:07.275424, 387.4525, 4177
18:02:07.283176, 387.455, 4156
18:02:07.283240, 387.4575, 4128
18:02:07.283272, 387.46, 4146
18:02:07.283306, 387.4625, 4113
18:02:07.309230, 387.465, 4199
18:02:07.309325, 387.4675, 4197
18:02:07.309375, 387.47, 4203
18:02:07.309463, 387.4725, 4184
18:02:07.310185, 387.475, 4228
18:02:07.310239, 387.4775, 4212
18:02:07.310278, 387.48, 4145
18:02:07.310315, 387.4825, 4237
18:02:07.310994, 387.485, 4252
18:02:07.311046, 387.4875, 4241
18:02:07.311085, 387.49, 4175
18:02:07.311121, 387.4925, 4267
18:02:07.338445, 387.495, 4264
18:02:07.338527, 387.4975, 4188
18:02:07.338556, 387.5, 4255
18:02:07.338577, 387.5025, 4274
18:02:07.339135, 387.505, 4256
18:02:07.339193, 387.5075, 4270
18:02:07.339221, 387.51, 4265
18:02:07.339244, 387.5125, 4274
18:02:07.339268, 387.515, 4217
18:02:07.344871, 387.5175, 4283
18:02:07.344958, 387.52, 4286
18:02:07.345007, 387.5225, 4273
18:02:07.345051, 387.525, 4268
18:02:07.354213, 387.5275, 4289
18:02:07.354249, 387.53, 4278
18:02:07.354270, 387.5325, 4185
18:02:07.354289, 387.535, 4269
18:02:07.372345, 387.5375, 4284
18:02:07.372454, 387.54, 4267
18:02:07.372516, 387.5425, 4243
18:02:07.372562, 387.545, 4254
18:02:07.373428, 387.5475, 4260
18:02:07.373506, 387.55, 4208
18:02:07.373560, 387.5525, 4298
18:02:07.373605, 387.555, 4278
18:02:07.389290, 387.5575, 4268
18:02:07.390397, 387.56, 4216
18:02:07.390476, 387.5625, 4220
18:02:07.390512, 387.565, 4218
18:02:07.414581, 387.5675, 4149
18:02:07.414669, 387.57, 4218
18:02:07.414716, 387.5725, 4199
18:02:07.414753, 387.575, 4215
18:02:07.415369, 387.5775, 4205
18:02:07.415410, 387.58, 4219
18:02:07.415436, 387.5825, 4219
18:02:07.415460, 387.585, 4125
18:02:07.416011, 387.5875, 4220
18:02:07.416079, 387.59, 4222
18:02:07.416133, 387.5925, 4190
18:02:07.416184, 387.595, 4181
18:02:07.446021, 387.5975, 4217
18:02:07.446162, 387.6, 4222
18:02:07.446209, 387.6025, 4143
18:02:07.446277, 387.605, 4194
18:02:07.447022, 387.6075, 4208
18:02:07.447047, 387.61, 4203
18:02:07.447063, 387.6125, 4183
18:02:07.447078, 387.615, 4223
18:02:07.449957, 387.6175, 4209
18:02:07.450032, 387.62, 4136
18:02:07.450085, 387.6225, 4177
18:02:07.450135, 387.625, 4201
18:02:07.450185, 387.6275, 4199
18:02:07.480935, 387.63, 4163
18:02:07.481079, 387.6325, 4210
18:02:07.481144, 387.635, 4206
18:02:07.481198, 387.6375, 4124
18:02:07.482119, 387.64, 4170
18:02:07.482187, 387.6425, 4189
18:02:07.482233, 387.645, 4189
18:02:07.482275, 387.6475, 4182
18:02:07.483033, 387.65, 4227
18:02:07.483055, 387.6525, 4213
18:02:07.483071, 387.655, 4140
18:02:07.483085, 387.6575, 4204
18:02:07.484659, 387.66, 4199
18:02:07.484708, 387.6625, 4217
18:02:07.484744, 387.665, 4190
18:02:07.484777, 387.6675, 4218
18:02:07.512107, 387.67, 4209
18:02:07.512201, 387.6725, 4115
18:02:07.512246, 387.675, 4190
18:02:07.512315, 387.6775, 4191
18:02:07.513846, 387.68, 4178
18:02:07.513954, 387.6825, 4164
18:02:07.514044, 387.685, 4186
18:02:07.514129, 387.6875, 4185
18:02:07.514215, 387.69, 4112
18:02:07.539541, 387.6925, 4209
18:02:07.539626, 387.695, 4214
18:02:07.539651, 387.6975, 4228
18:02:07.539716, 387.7, 4211
18:02:07.540027, 387.7025, 4203
18:02:07.540058, 387.705, 4198
18:02:07.540073, 387.7075, 4140
18:02:07.540086, 387.71, 4180
18:02:07.540367, 387.7125, 4160
18:02:07.540397, 387.715, 4173
18:02:07.540413, 387.7175, 4075
18:02:07.540429, 387.72, 4167
18:02:07.545853, 387.7225, 4153
18:02:07.545904, 387.725, 4105
18:02:07.545932, 387.7275, 4174
18:02:07.545957, 387.73, 4182
18:02:07.576894, 387.7325, 4171
18:02:07.576989, 387.735, 4157
18:02:07.577091, 387.7375, 4179
18:02:07.577138, 387.74, 4152
18:02:07.577690, 387.7425, 4092
18:02:07.577729, 387.745, 4192
18:02:07.577756, 387.7475, 4174
18:02:07.577781, 387.75, 4147
18:02:07.580672, 387.7525, 4123
18:02:07.580695, 387.755, 4155
18:02:07.580710, 387.7575, 4142
18:02:07.580723, 387.76, 4077
18:02:07.580737, 387.7625, 4168
18:02:07.609966, 387.765, 4155
18:02:07.610062, 387.7675, 4148
18:02:07.610097, 387.77, 4138
18:02:07.610134, 387.7725, 4163
18:02:07.610657, 387.775, 4162
18:02:07.610688, 387.7775, 4086
18:02:07.610710, 387.78, 4168
18:02:07.610732, 387.7825, 4183
18:02:07.615682, 387.785, 4173
18:02:07.615722, 387.7875, 4107
18:02:07.615739, 387.79, 4197
18:02:07.615755, 387.7925, 4167
18:02:07.643397, 387.795, 4107
18:02:07.643457, 387.7975, 4189
18:02:07.643480, 387.8, 4164
18:02:07.643500, 387.8025, 4174
18:02:07.643853, 387.805, 4170
18:02:07.643875, 387.8075, 4211
18:02:07.643891, 387.81, 4181
18:02:07.643905, 387.8125, 4125
18:02:07.644163, 387.815, 4227
18:02:07.644182, 387.8175, 4206
18:02:07.644198, 387.82, 4201
18:02:07.644212, 387.8225, 4160
18:02:07.676209, 387.825, 4175
18:02:07.676306, 387.8275, 4198
18:02:07.676330, 387.83, 4111
18:02:07.676348, 387.8325, 4191
18:02:07.676647, 387.835, 4200
18:02:07.676668, 387.8375, 4177
18:02:07.676682, 387.84, 4166
18:02:07.676696, 387.8425, 4179
18:02:07.676945, 387.845, 4178
18:02:07.676963, 387.8475, 4130
18:02:07.676978, 387.85, 4189
18:02:07.676992, 387.8525, 4188
18:02:07.677006, 387.855, 4191
18:02:07.686039, 387.8575, 4176
18:02:07.686110, 387.86, 4199
18:02:07.686155, 387.8625, 4176
18:02:07.686197, 387.865, 4120
18:02:07.708175, 387.8675, 4181
18:02:07.708298, 387.87, 4183
18:02:07.708330, 387.8725, 4197
18:02:07.708357, 387.875, 4156
18:02:07.714172, 387.8775, 4185
18:02:07.714226, 387.88, 4183
18:02:07.714268, 387.8825, 4106
18:02:07.714300, 387.885, 4191
18:02:07.715572, 387.8875, 4189
18:02:07.715616, 387.89, 4176
18:02:07.715648, 387.8925, 4137
18:02:07.715679, 387.895, 4163
18:02:07.720935, 387.8975, 4188
18:02:07.720978, 387.9, 4117
18:02:07.721018, 387.9025, 4181
18:02:07.721059, 387.905, 4176
18:02:07.740694, 387.9075, 4182
18:02:07.740857, 387.91, 4143
18:02:07.740920, 387.9125, 4169
18:02:07.740951, 387.915, 4173
18:02:07.747050, 387.9175, 4105
18:02:07.747092, 387.92, 4172
18:02:07.747109, 387.9225, 4193
18:02:07.747125, 387.925, 4180
18:02:07.757185, 387.9275, 4157
18:02:07.757266, 387.93, 4187
18:02:07.757321, 387.9325, 4172
18:02:07.757357, 387.935, 4076
18:02:07.782801, 387.9375, 4166
18:02:07.782892, 387.94, 4165
18:02:07.782919, 387.9425, 4163
18:02:07.782983, 387.945, 4142
18:02:07.783284, 387.9475, 4159
18:02:07.783306, 387.95, 4158
18:02:07.783321, 387.9525, 4074
18:02:07.783336, 387.955, 4122
18:02:07.783351, 387.9575, 4151
18:02:07.783612, 387.96, 4142
18:02:07.783632, 387.9625, 4126
18:02:07.783647, 387.965, 4157
18:02:07.783662, 387.9675, 4157
18:02:07.808061, 387.97, 4073
18:02:07.808166, 387.9725, 4146
18:02:07.808190, 387.975, 4167
18:02:07.808232, 387.9775, 4136
18:02:07.808738, 387.98, 4126
18:02:07.808785, 387.9825, 4152
18:02:07.808809, 387.985, 4147
18:02:07.808838, 387.9875, 4064
18:02:07.817488, 387.99, 4150
18:02:07.817586, 387.9925, 4147
18:02:07.817646, 387.995, 4148
18:02:07.817698, 387.9975, 4142
18:02:07.842865, 388.0, 4140
18:02:07.842952, 388.0025, 4105
18:02:07.842985, 388.005, 4023
18:02:07.843014, 388.0075, 4074
18:02:07.843540, 388.01, 4089
18:02:07.843574, 388.0125, 4081
18:02:07.843594, 388.015, 4042
18:02:07.843614, 388.0175, 4103
18:02:07.843633, 388.02, 4107
18:02:07.852480, 388.0225, 4035
18:02:07.852571, 388.025, 4129
18:02:07.852628, 388.0275, 4114
18:02:07.852680, 388.03, 4123
18:02:07.876268, 388.0325, 4131
18:02:07.876336, 388.035, 4159
18:02:07.876359, 388.0375, 4164
18:02:07.876380, 388.04, 4106
18:02:07.876750, 388.0425, 4184
18:02:07.876779, 388.045, 4188
18:02:07.876794, 388.0475, 4180
18:02:07.876810, 388.05, 4153
18:02:07.877918, 388.0525, 4153
18:02:07.877944, 388.055, 4161
18:02:07.877959, 388.0575, 4101
18:02:07.877973, 388.06, 4186
18:02:07.887382, 388.0625, 4192
18:02:07.887518, 388.065, 4179
18:02:07.887574, 388.0675, 4156
18:02:07.887621, 388.07, 4194
18:02:07.911593, 388.0725, 4180
18:02:07.911673, 388.075, 4113
18:02:07.911751, 388.0775, 4147
18:02:07.911772, 388.08, 4176
18:02:07.924847, 388.0825, 4167
18:02:07.924924, 388.085, 4164
18:02:07.924988, 388.0875, 4176
18:02:07.925023, 388.09, 4146
18:02:07.925052, 388.0925, 4086
18:02:07.925807, 388.095, 4180
18:02:07.925854, 388.0975, 4186
18:02:07.925882, 388.1, 4189
18:02:07.925911, 388.1025, 4225
18:02:07.944658, 388.105, 4234
18:02:07.944708, 388.1075, 4304
18:02:07.944730, 388.11, 4287
18:02:07.944749, 388.1125, 4423
18:02:07.945103, 388.115, 4472
18:02:07.945124, 388.1175, 4463
18:02:07.945139, 388.12, 4403
18:02:07.945153, 388.1225, 4287
18:02:07.948795, 388.125, 4055
18:02:07.948883, 388.1275, 3732
18:02:07.948937, 388.13, 3521
18:02:07.948988, 388.1325, 3259
18:02:07.978026, 388.135, 2910
18:02:07.978108, 388.1375, 2452
18:02:07.978141, 388.14, 1997
18:02:07.978171, 388.1425, 1780
18:02:07.978682, 388.145, 1618
18:02:07.978715, 388.1475, 1886
18:02:07.978739, 388.15, 2356
18:02:07.978761, 388.1525, 3161
18:02:07.983346, 388.155, 4212
18:02:07.983419, 388.1575, 4870
18:02:07.983502, 388.16, 5089
18:02:07.983598, 388.1625, 5034
18:02:08.008519, 388.165, 5022
18:02:08.008691, 388.1675, 4885
18:02:08.008726, 388.17, 4734
18:02:08.008751, 388.1725, 4632
18:02:08.009117, 388.175, 4590
18:02:08.009155, 388.1775, 4543
18:02:08.009170, 388.18, 4431
18:02:08.009185, 388.1825, 4506
18:02:08.009200, 388.185, 4519
18:02:08.009451, 388.1875, 4509
18:02:08.009474, 388.19, 4466
18:02:08.009488, 388.1925, 4501
18:02:08.009502, 388.195, 4501
18:02:08.057327, 388.1975, 4437
18:02:08.057390, 388.2, 4494
18:02:08.057413, 388.2025, 4465
18:02:08.057433, 388.205, 4436
18:02:08.057825, 388.2075, 4415
18:02:08.057856, 388.21, 4427
18:02:08.057872, 388.2125, 4410
18:02:08.057886, 388.215, 4325
18:02:08.058143, 388.2175, 4412
18:02:08.058168, 388.22, 4408
18:02:08.058183, 388.2225, 4388
18:02:08.058197, 388.225, 4309
18:02:08.058458, 388.2275, 4380
18:02:08.058487, 388.23, 4368
18:02:08.058514, 388.2325, 4297
18:02:08.058531, 388.235, 4359
18:02:08.078730, 388.2375, 4348
18:02:08.078814, 388.24, 4333
18:02:08.078873, 388.2425, 4311
18:02:08.078915, 388.245, 4338
18:02:08.080128, 388.2475, 4351
18:02:08.080168, 388.25, 4266
18:02:08.080194, 388.2525, 4312
18:02:08.080217, 388.255, 4325
18:02:08.095740, 388.2575, 4311
18:02:08.095833, 388.26, 4288
18:02:08.095883, 388.2625, 4301
18:02:08.095911, 388.265, 4270
18:02:08.095936, 388.2675, 4196
18:02:08.108451, 388.27, 4267
18:02:08.108548, 388.2725, 4251
18:02:08.108572, 388.275, 4242
18:02:08.108593, 388.2775, 4239
18:02:08.109520, 388.28, 4268
18:02:08.109566, 388.2825, 4266
18:02:08.109585, 388.285, 4194
18:02:08.109604, 388.2875, 4273
18:02:08.127516, 388.29, 4259
18:02:08.127585, 388.2925, 4237
18:02:08.127610, 388.295, 4171
18:02:08.127630, 388.2975, 4260
18:02:08.127982, 388.3, 4255
18:02:08.128005, 388.3025, 4156
18:02:08.128021, 388.305, 4234
18:02:08.128036, 388.3075, 4214
18:02:08.163026, 388.31, 4222
18:02:08.163099, 388.3125, 4218
18:02:08.163129, 388.315, 4237
18:02:08.163185, 388.3175, 4214
18:02:08.163211, 388.32, 4149
18:02:08.163685, 388.3225, 4224
18:02:08.163724, 388.325, 4204
18:02:08.163755, 388.3275, 4184
18:02:08.164134, 388.33, 4172
18:02:08.164160, 388.3325, 4191
18:02:08.164177, 388.335, 4176
18:02:08.164194, 388.3375, 4118
18:02:08.194969, 388.34, 4202
18:02:08.195075, 388.3425, 4197
18:02:08.195111, 388.345, 4182
18:02:08.195140, 388.3475, 4183
18:02:08.195215, 388.35, 4179
18:02:08.195732, 388.3525, 4156
18:02:08.195766, 388.355, 4133
18:02:08.195790, 388.3575, 4166
18:02:08.195813, 388.36, 4154
18:02:08.196218, 388.3625, 4157
18:02:08.196247, 388.365, 4097
18:02:08.196270, 388.3675, 4189
18:02:08.196293, 388.37, 4190
18:02:08.227857, 388.3725, 4130
18:02:08.227950, 388.375, 4189
18:02:08.227985, 388.3775, 4185
18:02:08.228019, 388.38, 4188
18:02:08.228528, 388.3825, 4170
18:02:08.228560, 388.385, 4183
18:02:08.228581, 388.3875, 4173
18:02:08.228602, 388.39, 4127
18:02:08.229048, 388.3925, 4154
18:02:08.229078, 388.395, 4175
18:02:08.229100, 388.3975, 4161
18:02:08.229121, 388.4, 4042
18:02:08.229499, 388.4025, 4209
18:02:08.229526, 388.405, 4216
18:02:08.229547, 388.4075, 4118
18:02:08.229567, 388.41, 4190
18:02:08.261662, 388.4125, 4185
18:02:08.261721, 388.415, 4176
18:02:08.261745, 388.4175, 4161
18:02:08.261765, 388.42, 4176
18:02:08.261824, 388.4225, 4163
18:02:08.262136, 388.425, 4106
18:02:08.262159, 388.4275, 4151
18:02:08.262175, 388.43, 4125
18:02:08.262190, 388.4325, 4129
18:02:08.262936, 388.435, 4117
18:02:08.262958, 388.4375, 4142
18:02:08.262974, 388.44, 4150
18:02:08.262989, 388.4425, 4098
18:02:08.272389, 388.445, 4164
18:02:08.272504, 388.4475, 4174
18:02:08.272562, 388.45, 4181
18:02:08.272618, 388.4525, 4155
18:02:08.305765, 388.455, 4200
18:02:08.305880, 388.4575, 4206
18:02:08.305930, 388.46, 4169
18:02:08.305968, 388.4625, 4246
18:02:08.307009, 388.465, 4241
18:02:08.307092, 388.4675, 4235
18:02:08.307148, 388.47, 4218
18:02:08.307200, 388.4725, 4231
18:02:08.307664, 388.475, 4232
18:02:08.307692, 388.4775, 4157
18:02:08.307708, 388.48, 4215
18:02:08.307762, 388.4825, 4239
18:02:08.329417, 388.485, 4261
18:02:08.329542, 388.4875, 4256
18:02:08.329598, 388.49, 4287
18:02:08.329627, 388.4925, 4289
18:02:08.329670, 388.495, 4191
18:02:08.330129, 388.4975, 4282
18:02:08.330161, 388.5, 4288
18:02:08.330184, 388.5025, 4271
18:02:08.330206, 388.505, 4263
18:02:08.333442, 388.5075, 4272
18:02:08.333497, 388.51, 4257
18:02:08.333536, 388.5125, 4172
18:02:08.333574, 388.515, 4271
18:02:08.342642, 388.5175, 4263
18:02:08.342691, 388.52, 4269
18:02:08.342718, 388.5225, 4253
18:02:08.342744, 388.525, 4253
18:02:08.363040, 388.5275, 4258
18:02:08.363184, 388.53, 4185
18:02:08.363228, 388.5325, 4254
18:02:08.363253, 388.535, 4229
18:02:08.368814, 388.5375, 4229
18:02:08.368912, 388.54, 4204
18:02:08.368970, 388.5425, 4216
18:02:08.369021, 388.545, 4212
18:02:08.377663, 388.5475, 4120
18:02:08.377737, 388.55, 4193
18:02:08.377806, 388.5525, 4215
18:02:08.377833, 388.555, 4215
18:02:08.393842, 388.5575, 4184
18:02:08.393953, 388.56, 4233
18:02:08.393980, 388.5625, 4223
18:02:08.394000, 388.565, 4114
18:02:08.395304, 388.5675, 4204
18:02:08.395369, 388.57, 4207
18:02:08.395399, 388.5725, 4192
18:02:08.395425, 388.575, 4165
18:02:08.395451, 388.5775, 4191
18:02:08.403139, 388.58, 4177
18:02:08.403195, 388.5825, 4108
18:02:08.403223, 388.585, 4200
18:02:08.403249, 388.5875, 4210
18:02:08.427753, 388.59, 4198
18:02:08.427915, 388.5925, 4169
18:02:08.428022, 388.595, 4209
18:02:08.428078, 388.5975, 4182
18:02:08.429447, 388.6, 4121
18:02:08.429503, 388.6025, 4191
18:02:08.429521, 388.605, 4193
18:02:08.429537, 388.6075, 4165
18:02:08.438630, 388.61, 4168
18:02:08.438743, 388.6125, 4182
18:02:08.438802, 388.615, 4167
18:02:08.438877, 388.6175, 4075
18:02:08.467356, 388.62, 4180
18:02:08.467455, 388.6225, 4149
18:02:08.467495, 388.625, 4156
18:02:08.467544, 388.6275, 4136
18:02:08.468204, 388.63, 4170
18:02:08.468254, 388.6325, 4154
18:02:08.468290, 388.635, 4109
18:02:08.468324, 388.6375, 4167
18:02:08.469002, 388.64, 4172
18:02:08.469053, 388.6425, 4127
18:02:08.469088, 388.645, 4120
18:02:08.469122, 388.6475, 4168
18:02:08.473597, 388.65, 4154
18:02:08.473668, 388.6525, 4070
18:02:08.473711, 388.655, 4149
18:02:08.473752, 388.6575, 4156
18:02:08.530263, 388.66, 4168
18:02:08.530343, 388.6625, 4131
18:02:08.530440, 388.665, 4155
18:02:08.530472, 388.6675, 4125
18:02:08.530906, 388.67, 4055
18:02:08.530972, 388.6725, 4125
18:02:08.531043, 388.675, 4126
18:02:08.531095, 388.6775, 4140
18:02:08.531146, 388.68, 4138
18:02:08.532130, 388.6825, 4139
18:02:08.532202, 388.685, 4142
18:02:08.532257, 388.6875, 4053
18:02:08.532307, 388.69, 4130
18:02:08.533241, 388.6925, 4141
18:02:08.533308, 388.695, 4130
18:02:08.533361, 388.6975, 4013
18:02:08.533413, 388.7, 4145
18:02:08.534491, 388.7025, 4172
18:02:08.534586, 388.705, 4065
18:02:08.534644, 388.7075, 4127
18:02:08.534695, 388.71, 4141
18:02:08.544157, 388.7125, 4137
18:02:08.544228, 388.715, 4136
18:02:08.544251, 388.7175, 4139
18:02:08.544315, 388.72, 4124
18:02:08.572146, 388.7225, 4062
18:02:08.572238, 388.725, 4149
18:02:08.572272, 388.7275, 4136
18:02:08.572294, 388.73, 4140
18:02:08.572603, 388.7325, 4127
18:02:08.572627, 388.735, 4155
18:02:08.572642, 388.7375, 4148
18:02:08.572656, 388.74, 4081
18:02:08.572896, 388.7425, 4181
18:02:08.572913, 388.745, 4156
18:02:08.572934, 388.7475, 4172
18:02:08.573020, 388.75, 4146
18:02:08.594929, 388.7525, 4147
18:02:08.595021, 388.755, 4147
18:02:08.595052, 388.7575, 4095
18:02:08.595078, 388.76, 4188
18:02:08.595550, 388.7625, 4201
18:02:08.595583, 388.765, 4197
18:02:08.595603, 388.7675, 4178
18:02:08.595623, 388.77, 4188
18:02:08.605108, 388.7725, 4180
18:02:08.605207, 388.775, 4119
18:02:08.605267, 388.7775, 4175
18:02:08.605320, 388.78, 4146
18:02:08.629777, 388.7825, 4146
18:02:08.629889, 388.785, 4138
18:02:08.629918, 388.7875, 4157
18:02:08.629940, 388.79, 4166
18:02:08.629961, 388.7925, 4094
18:02:08.630322, 388.795, 4172
18:02:08.630350, 388.7975, 4168
18:02:08.630366, 388.8, 4171
18:02:08.630381, 388.8025, 4169
18:02:08.630667, 388.805, 4195
18:02:08.630686, 388.8075, 4183
18:02:08.630701, 388.81, 4096
18:02:08.630716, 388.8125, 4160
18:02:08.639798, 388.815, 4172
18:02:08.639887, 388.8175, 4156
18:02:08.639933, 388.82, 4157
18:02:08.639975, 388.8225, 4187
18:02:08.664753, 388.825, 4183
18:02:08.664854, 388.8275, 4129
18:02:08.664972, 388.83, 4184
18:02:08.665052, 388.8325, 4166
18:02:08.666135, 388.835, 4163
18:02:08.666193, 388.8375, 4138
18:02:08.666237, 388.84, 4178
18:02:08.666282, 388.8425, 4184
18:02:08.674579, 388.845, 4110
18:02:08.674619, 388.8475, 4184
18:02:08.674650, 388.85, 4191
18:02:08.674680, 388.8525, 4161
18:02:08.674704, 388.855, 4160
18:02:08.696019, 388.8575, 4187
18:02:08.696134, 388.86, 4146
18:02:08.696178, 388.8625, 4076
18:02:08.696212, 388.865, 4175
18:02:08.696770, 388.8675, 4173
18:02:08.696817, 388.87, 4168
18:02:08.696847, 388.8725, 4144
18:02:08.696877, 388.875, 4161
18:02:08.700861, 388.8775, 4178
18:02:08.700908, 388.88, 4109
18:02:08.700939, 388.8825, 4184
18:02:08.700968, 388.885, 4193
18:02:08.731192, 388.8875, 4178
18:02:08.731282, 388.89, 4150
18:02:08.731324, 388.8925, 4173
18:02:08.731387, 388.895, 4149
18:02:08.731930, 388.8975, 4075
18:02:08.731968, 388.9, 4158
18:02:08.732001, 388.9025, 4180
18:02:08.732033, 388.905, 4161
18:02:08.735749, 388.9075, 4137
18:02:08.735789, 388.91, 4176
18:02:08.735823, 388.9125, 4180
18:02:08.735855, 388.915, 4102
18:02:08.735887, 388.9175, 4187
18:02:08.764796, 388.92, 4181
18:02:08.764876, 388.9225, 4170
18:02:08.764915, 388.925, 4167
18:02:08.764953, 388.9275, 4176
18:02:08.765515, 388.93, 4164
18:02:08.765551, 388.9325, 4080
18:02:08.765580, 388.935, 4144
18:02:08.765608, 388.9375, 4132
18:02:08.770861, 388.94, 4139
18:02:08.770903, 388.9425, 4090
18:02:08.770936, 388.945, 4165
18:02:08.770966, 388.9475, 4168
18:02:08.796147, 388.95, 4096
18:02:08.796243, 388.9525, 4170
18:02:08.796306, 388.955, 4181
18:02:08.796344, 388.9575, 4161
18:02:08.796864, 388.96, 4164
18:02:08.796909, 388.9625, 4195
18:02:08.796936, 388.965, 4182
18:02:08.796961, 388.9675, 4109
18:02:08.797415, 388.97, 4145
18:02:08.797453, 388.9725, 4164
18:02:08.797482, 388.975, 4159
18:02:08.797508, 388.9775, 4123
18:02:08.805918, 388.98, 4156
18:02:08.805977, 388.9825, 4140
18:02:08.806007, 388.985, 4076
18:02:08.806034, 388.9875, 4181
18:02:08.831634, 388.99, 4166
18:02:08.831700, 388.9925, 4177
18:02:08.831739, 388.995, 4160
18:02:08.831776, 388.9975, 4188
18:02:08.831816, 389.0, 4174
18:02:08.832388, 389.0025, 4123
18:02:08.832425, 389.005, 4180
18:02:08.832457, 389.0075, 4157
18:02:08.832488, 389.01, 4170
18:02:08.840919, 389.0125, 4149
18:02:08.840979, 389.015, 4165
18:02:08.841013, 389.0175, 4149
18:02:08.841045, 389.02, 4077
18:02:08.863093, 389.0225, 4180
18:02:08.863242, 389.025, 4174
18:02:08.863283, 389.0275, 4142
18:02:08.863315, 389.03, 4104
18:02:08.863811, 389.0325, 4119
18:02:08.863858, 389.035, 4089
18:02:08.863881, 389.0375, 4047
18:02:08.863903, 389.04, 4114
18:02:08.867304, 389.0425, 4121
18:02:08.867379, 389.045, 4094
18:02:08.867415, 389.0475, 4108
18:02:08.867499, 389.05, 4148
18:02:08.898569, 389.0525, 4155
18:02:08.898635, 389.055, 4081
18:02:08.898657, 389.0575, 4148
18:02:08.898677, 389.06, 4181
18:02:08.899164, 389.0625, 4154
18:02:08.899196, 389.065, 4158
18:02:08.899216, 389.0675, 4182
18:02:08.899235, 389.07, 4188
18:02:08.899254, 389.0725, 4118
18:02:08.901849, 389.075, 4195
18:02:08.901887, 389.0775, 4176
18:02:08.901907, 389.08, 4175
18:02:08.901925, 389.0825, 4096
18:02:08.912212, 389.085, 4190
18:02:08.912255, 389.0875, 4196
18:02:08.912278, 389.09, 4117
18:02:08.912298, 389.0925, 4191
18:02:08.936223, 389.095, 4204
18:02:08.936284, 389.0975, 4201
18:02:08.936309, 389.1, 4173
18:02:08.936331, 389.1025, 4179
18:02:08.936811, 389.105, 4181
18:02:08.936840, 389.1075, 4120
18:02:08.936858, 389.11, 4200
18:02:08.936875, 389.1125, 4185
18:02:08.946484, 389.115, 4179
18:02:08.946551, 389.1175, 4150
18:02:08.946596, 389.12, 4192
18:02:08.946618, 389.1225, 4195
18:02:08.966591, 389.125, 4126
18:02:08.966693, 389.1275, 4208
18:02:08.966726, 389.13, 4253
18:02:08.966753, 389.1325, 4341
18:02:08.967113, 389.135, 4390
18:02:08.967137, 389.1375, 4453
18:02:08.967153, 389.14, 4489
18:02:08.967167, 389.1425, 4431
18:02:08.972132, 389.145, 4484
18:02:08.972197, 389.1475, 4306
18:02:08.972235, 389.15, 4100
18:02:08.972270, 389.1525, 3823
18:02:09.001372, 389.155, 3531
18:02:09.001491, 389.1575, 3153
18:02:09.001569, 389.16, 2654
18:02:09.001637, 389.1625, 2204
18:02:09.002206, 389.165, 1673
18:02:09.002246, 389.1675, 1461
18:02:09.002273, 389.17, 1481
18:02:09.002298, 389.1725, 1688
18:02:09.007222, 389.175, 2293
18:02:09.007290, 389.1775, 3189
18:02:09.007327, 389.18, 4342
18:02:09.007361, 389.1825, 4968
18:02:09.007394, 389.185, 5068
18:02:09.035968, 389.1875, 4929
18:02:09.036061, 389.19, 4787
18:02:09.036119, 389.1925, 4639
18:02:09.036169, 389.195, 4502
18:02:09.036885, 389.1975, 4554
18:02:09.036937, 389.2, 4532
18:02:09.036967, 389.2025, 4502
18:02:09.036994, 389.205, 4475
18:02:09.037611, 389.2075, 4497
18:02:09.037658, 389.21, 4509
18:02:09.037693, 389.2125, 4468
18:02:09.037728, 389.215, 4554
18:02:09.042194, 389.2175, 4532
18:02:09.042251, 389.22, 4519
18:02:09.042289, 389.2225, 4510
18:02:09.042326, 389.225, 4532
18:02:09.070027, 389.2275, 4513
18:02:09.070131, 389.23, 4435
18:02:09.070200, 389.2325, 4488
18:02:09.070242, 389.235, 4466
18:02:09.081079, 389.2375, 4432
18:02:09.081173, 389.24, 4433
18:02:09.081204, 389.2425, 4444
18:02:09.081242, 389.245, 4434
18:02:09.103702, 389.2475, 4352
18:02:09.103814, 389.25, 4407
18:02:09.103864, 389.2525, 4402
18:02:09.103904, 389.255, 4382
18:02:09.104031, 389.2575, 4378
18:02:09.105110, 389.26, 4371
18:02:09.105193, 389.2625, 4360
18:02:09.105249, 389.265, 4283
18:02:09.105302, 389.2675, 4368
18:02:09.106220, 389.27, 4334
18:02:09.106288, 389.2725, 4327
18:02:09.106341, 389.275, 4329
18:02:09.106392, 389.2775, 4335
18:02:09.107250, 389.28, 4340
18:02:09.107299, 389.2825, 4259
18:02:09.107334, 389.285, 4339
18:02:09.107369, 389.2875, 4318
18:02:09.113562, 389.29, 4293
18:02:09.113622, 389.2925, 4271
18:02:09.113649, 389.295, 4296
18:02:09.113673, 389.2975, 4277
18:02:09.137685, 389.3, 4209
18:02:09.137734, 389.3025, 4265
18:02:09.137760, 389.305, 4267
18:02:09.137780, 389.3075, 4243
18:02:09.166762, 389.31, 4230
18:02:09.166860, 389.3125, 4224
18:02:09.166924, 389.315, 4225
18:02:09.167056, 389.3175, 4142
18:02:09.167921, 389.32, 4231
18:02:09.167976, 389.3225, 4235
18:02:09.168015, 389.325, 4242
18:02:09.168049, 389.3275, 4229
18:02:09.168652, 389.33, 4224
18:02:09.168697, 389.3325, 4201
18:02:09.168732, 389.335, 4111
18:02:09.168766, 389.3375, 4221
18:02:09.169362, 389.34, 4226
18:02:09.169406, 389.3425, 4207
18:02:09.169441, 389.345, 4160
18:02:09.169474, 389.3475, 4234
18:02:09.199445, 389.35, 4200
18:02:09.199566, 389.3525, 4142
18:02:09.199602, 389.355, 4211
18:02:09.199634, 389.3575, 4215
18:02:09.199664, 389.36, 4203
18:02:09.200227, 389.3625, 4222
18:02:09.200271, 389.365, 4241
18:02:09.200294, 389.3675, 4223
18:02:09.200335, 389.37, 4181
18:02:09.200772, 389.3725, 4246
18:02:09.200806, 389.375, 4249
18:02:09.200864, 389.3775, 4226
18:02:09.200889, 389.38, 4210
18:02:09.208285, 389.3825, 4240
18:02:09.208357, 389.385, 4237
18:02:09.208399, 389.3875, 4173
18:02:09.208438, 389.39, 4229
18:02:09.233327, 389.3925, 4232
18:02:09.233436, 389.395, 4248
18:02:09.233475, 389.3975, 4240
18:02:09.233508, 389.4, 4252
18:02:09.234083, 389.4025, 4246
18:02:09.234136, 389.405, 4150
18:02:09.234162, 389.4075, 4254
18:02:09.234186, 389.41, 4226
18:02:09.243722, 389.4125, 4255
18:02:09.243809, 389.415, 4204
18:02:09.243859, 389.4175, 4233
18:02:09.243904, 389.42, 4230
18:02:09.278974, 389.4225, 4149
18:02:09.279081, 389.425, 4210
18:02:09.279117, 389.4275, 4224
18:02:09.279181, 389.43, 4214
18:02:09.281278, 389.4325, 4199
18:02:09.281369, 389.435, 4225
18:02:09.281424, 389.4375, 4205
18:02:09.281475, 389.44, 4137
18:02:09.281528, 389.4425, 4227
18:02:09.299177, 389.445, 4205
18:02:09.299244, 389.4475, 4177
18:02:09.299268, 389.45, 4158
18:02:09.299290, 389.4525, 4187
18:02:09.299677, 389.455, 4150
18:02:09.299709, 389.4575, 4062
18:02:09.299725, 389.46, 4141
18:02:09.299740, 389.4625, 4144
18:02:09.300803, 389.465, 4136
18:02:09.300834, 389.4675, 4106
18:02:09.300854, 389.47, 4115
18:02:09.300872, 389.4725, 4083
18:02:09.304272, 389.475, 4011
18:02:09.304301, 389.4775, 4096
18:02:09.304317, 389.48, 4100
18:02:09.304332, 389.4825, 4099
18:02:09.320652, 389.485, 4123
18:02:09.320714, 389.4875, 4135
18:02:09.320739, 389.49, 4140
18:02:09.320762, 389.4925, 4068
18:02:09.321914, 389.495, 4154
18:02:09.321943, 389.4975, 4170
18:02:09.321960, 389.5, 4181
18:02:09.321975, 389.5025, 4165
18:02:09.331458, 389.505, 4192
18:02:09.331541, 389.5075, 4199
18:02:09.331584, 389.51, 4108
18:02:09.331615, 389.5125, 4199
18:02:09.355484, 389.515, 4207
18:02:09.355579, 389.5175, 4196
18:02:09.355626, 389.52, 4173
18:02:09.355644, 389.5225, 4196
18:02:09.356775, 389.525, 4196
18:02:09.356805, 389.5275, 4129
18:02:09.356820, 389.53, 4196
18:02:09.356834, 389.5325, 4183
18:02:09.356848, 389.535, 4203
18:02:09.365981, 389.5375, 4190
18:02:09.366065, 389.54, 4215
18:02:09.366110, 389.5425, 4209
18:02:09.366136, 389.545, 4120
18:02:09.395698, 389.5475, 4207
18:02:09.395793, 389.55, 4192
18:02:09.395830, 389.5525, 4179
18:02:09.395859, 389.555, 4155
18:02:09.396505, 389.5575, 4196
18:02:09.396631, 389.56, 4189
18:02:09.396653, 389.5625, 4119
18:02:09.396672, 389.565, 4184
18:02:09.416361, 389.5675, 4200
18:02:09.416468, 389.57, 4187
18:02:09.416506, 389.5725, 4181
18:02:09.416535, 389.575, 4189
18:02:09.417157, 389.5775, 4178
18:02:09.417208, 389.58, 4129
18:02:09.417232, 389.5825, 4197
18:02:09.417255, 389.585, 4200
18:02:09.429007, 389.5875, 4176
18:02:09.429036, 389.59, 4159
18:02:09.429052, 389.5925, 4193
18:02:09.429066, 389.595, 4195
18:02:09.429080, 389.5975, 4111
18:02:09.431712, 389.6, 4172
18:02:09.431765, 389.6025, 4182
18:02:09.431793, 389.605, 4216
18:02:09.431823, 389.6075, 4182
18:02:09.450058, 389.61, 4188
18:02:09.450159, 389.6125, 4183
18:02:09.450196, 389.615, 4113
18:02:09.450237, 389.6175, 4190
18:02:09.450643, 389.62, 4209
18:02:09.450683, 389.6225, 4197
18:02:09.450700, 389.625, 4176
18:02:09.450715, 389.6275, 4183
18:02:09.462461, 389.63, 4169
18:02:09.462560, 389.6325, 4110
18:02:09.462615, 389.635, 4185
18:02:09.462666, 389.6375, 4193
18:02:09.487781, 389.64, 4185
18:02:09.487840, 389.6425, 4163
18:02:09.487871, 389.645, 4179
18:02:09.487945, 389.6475, 4180
18:02:09.487978, 389.65, 4113
18:02:09.488318, 389.6525, 4176
18:02:09.488342, 389.655, 4173
18:02:09.488358, 389.6575, 4156
18:02:09.488374, 389.66, 4133
18:02:09.488646, 389.6625, 4181
18:02:09.488666, 389.665, 4171
18:02:09.488682, 389.6675, 4123
18:02:09.488697, 389.67, 4190
18:02:09.498258, 389.6725, 4217
18:02:09.498308, 389.675, 4185
18:02:09.498335, 389.6775, 4161
18:02:09.498361, 389.68, 4201
18:02:09.526396, 389.6825, 4192
18:02:09.526466, 389.685, 4106
18:02:09.526584, 389.6875, 4187
18:02:09.526635, 389.69, 4185
18:02:09.553731, 389.6925, 4180
18:02:09.553864, 389.695, 4149
18:02:09.553920, 389.6975, 4206
18:02:09.553977, 389.7, 4173
18:02:09.554448, 389.7025, 4088
18:02:09.554515, 389.705, 4167
18:02:09.554543, 389.7075, 4191
18:02:09.554566, 389.71, 4188
18:02:09.554988, 389.7125, 4172
18:02:09.555026, 389.715, 4201
18:02:09.555048, 389.7175, 4186
18:02:09.555070, 389.72, 4112
18:02:09.555700, 389.7225, 4210
18:02:09.555753, 389.725, 4216
18:02:09.555794, 389.7275, 4205
18:02:09.555834, 389.73, 4192
18:02:09.558512, 389.7325, 4201
18:02:09.558568, 389.735, 4196
18:02:09.558610, 389.7375, 4128
18:02:09.558649, 389.74, 4194
18:02:09.583979, 389.7425, 4187
18:02:09.584101, 389.745, 4201
18:02:09.584162, 389.7475, 4164
18:02:09.584259, 389.75, 4207
18:02:09.585114, 389.7525, 4178
18:02:09.585182, 389.755, 4123
18:02:09.585238, 389.7575, 4204
18:02:09.585283, 389.76, 4217
18:02:09.585327, 389.7625, 4189
18:02:09.616795, 389.765, 4190
18:02:09.616885, 389.7675, 4190
