17:57:00.008572 357.27 1440 1552 14488 -845 61 -30
17:57:00.019945 357.28 1564 1520 14352 -586 43 -38
17:57:00.020087 357.29 1568 1536 14436 -514 78 -59
17:57:00.025537 357.3 1432 1616 14276 -719 72 -55
17:57:00.042207 357.31 1464 1460 14004 -809 -25 9
17:57:00.056559 357.32 1484 1372 14220 -585 -79 36
17:57:00.076645 357.33 1508 1504 14456 -407 60 -10
17:57:00.089634 357.34 1520 1532 14508 -493 259 -43
17:57:00.089808 357.35 1496 1488 13752 -1093 221 -3
17:57:00.089956 357.36 1704 1312 14628 -1045 -39 59
17:57:00.108482 357.37 1792 1344 14728 337 211 -89
17:57:00.120540 357.38 1460 1632 13832 -156 -273 -3
17:57:00.122510 357.39 1624 1244 14264 -383 -5 0
17:57:00.141941 357.4 1528 1380 14444 342 133 -8
17:57:00.154873 357.41 1504 1488 13680 -682 -135 82
17:57:00.155072 357.42 1660 1208 13776 -303 92 113
17:57:00.159792 357.43 1616 1464 14492 733 340 21
17:57:00.179312 357.44 1612 1608 14756 875 418 -38
17:57:00.189123 357.45 1488 1644 14476 794 398 -43
17:57:00.211867 357.46 1368 1748 14228 462 491 3
17:57:00.219844 357.47 1416 1680 14188 325 510 1
17:57:00.222146 357.48 1416 1748 14300 255 348 21
17:57:00.224444 357.49 1480 1592 14224 245 339 26
17:57:00.274989 357.5 1596 1488 14184 307 360 25
17:57:00.287963 357.51 1620 1496 14236 369 338 16
17:57:00.288216 357.52 1516 1556 13852 416 292 32
17:57:00.288467 357.53 1548 1580 14100 473 222 31
17:57:00.288740 357.54 1488 1544 14192 678 151 27
17:57:00.288966 357.55 1536 1480 14380 879 134 9
17:57:00.311542 357.56 1600 1628 14416 908 254 -21
17:57:00.320095 357.57 1568 1612 14368 830 304 -11
17:57:00.327147 357.58 1532 1596 14292 809 314 -7
17:57:00.329116 357.59 1524 1660 14292 806 351 -35
17:57:00.346529 357.6 1544 1780 14204 818 331 -33
17:57:00.354976 357.61 1616 1620 14236 823 292 9
17:57:00.355121 357.62 1568 1712 14196 853 257 28
17:57:00.362659 357.63 1488 1748 14268 976 277 -11
17:57:00.381191 357.64 1556 1764 14160 988 292 32
17:57:00.413376 357.65 1540 1912 14208 1092 357 -33
17:57:00.421977 357.66 1488 1940 14308 1218 330 2
17:57:00.422085 357.67 1444 1892 14260 1291 355 0
17:57:00.422155 357.68 1572 1984 14240 1396 347 2
17:57:00.422427 357.69 1616 2116 14220 1394 282 -31
17:57:00.477555 357.7 1460 2064 14548 1487 595 -29
17:57:00.485947 357.71 1356 2104 14060 1231 368 -19
17:57:00.486070 357.72 1508 2088 13900 896 344 12
17:57:00.486146 357.73 1584 2032 14104 1169 363 -17
17:57:00.512993 357.74 1352 2092 14028 1276 78 -14
17:57:00.520592 357.75 1496 2008 14164 1516 160 -37
17:57:00.520748 357.76 1508 2152 14168 1653 320 -77
17:57:00.574127 357.77 1484 2272 14348 1569 317 -47
17:57:00.590979 357.78 1480 2296 14220 1435 307 -43
17:57:00.591144 357.79 1368 2344 14272 1286 284 -65
17:57:00.591285 357.8 1512 2388 14260 1266 327 -101
17:57:00.591426 357.81 1544 2468 14272 1409 280 -119
17:57:00.591563 357.82 1384 2464 14276 1428 323 -104
17:57:00.591698 357.83 1488 2524 14224 1325 362 -105
17:57:00.591832 357.84 1560 2448 14240 1177 337 -92
17:57:00.597302 357.85 1540 2416 14188 1139 370 -55
17:57:00.599559 357.86 1504 2400 14004 1146 300 -73
17:57:00.648246 357.87 1412 2516 13964 1167 306 -60
17:57:00.655663 357.88 1504 2580 14068 1154 230 -43
17:57:00.655762 357.89 1496 2540 14092 1148 274 -83
17:57:00.660581 357.9 1524 2428 14172 1313 302 -76
17:57:00.661859 357.91 1388 2636 14204 1461 336 -114
17:57:00.663102 357.92 1420 2632 14208 1436 303 -96
17:57:00.683134 357.93 1344 2820 14072 1264 355 -109
17:57:00.690274 357.94 1488 2744 14220 1096 381 -125
17:57:00.692354 357.95 1476 2744 14080 1013 428 -99
17:57:00.716812 357.96 1352 2868 14180 897 401 -85
17:57:00.761115 357.97 1368 2964 14148 920 353 -87
17:57:00.788546 357.98 1432 3020 14188 948 314 -91
17:57:00.789685 357.99 1356 2868 14128 942 290 -98
17:57:00.789894 358.0 1492 2840 14032 1024 327 -101
17:57:00.791082 358.01 1332 3016 14032 1123 287 -95
17:57:00.792323 358.02 1452 2912 14056 1174 318 -65
17:57:00.816422 358.03 1412 3020 14108 1206 292 -61
17:57:00.824719 358.04 1460 3092 14116 1212 262 -56
17:57:00.824877 358.05 1492 3036 14060 1180 261 -87
17:57:00.824995 358.06 1464 3108 14040 1281 303 -105
17:57:00.825117 358.07 1344 3076 14096 1334 307 -112
17:57:00.850493 358.08 1512 3212 14024 1374 298 -143
17:57:00.858816 358.09 1472 3128 14016 1320 304 -130
17:57:00.913052 358.1 1432 3132 14152 1274 295 -149
17:57:00.925111 358.11 1412 3300 14064 1233 345 -128
17:57:00.925285 358.12 1368 3284 13988 1109 302 -136
17:57:00.925394 358.13 1416 3300 13976 1061 255 -120
17:57:00.925459 358.14 1424 3280 13976 1049 344 -113
17:57:00.925556 358.15 1484 3344 14032 1027 286 -101
17:57:00.925714 358.16 1388 3276 13972 1029 220 -97
17:57:00.925962 358.17 1264 3376 13940 879 201 -69
17:57:00.935123 358.18 1244 3392 14036 838 203 -118
17:57:00.957523 358.19 1388 3356 14016 849 96 -86
17:57:00.957797 358.2 1300 3456 14004 858 71 -109
17:57:00.983244 358.21 1404 3472 14036 955 37 -108
17:57:00.991729 358.22 1432 3580 13996 884 98 -87
17:57:00.991891 358.23 1496 3604 14100 754 219 -94
17:57:00.994546 358.24 1396 3648 13988 678 211 -74
17:57:00.996167 358.25 1292 3584 14016 728 399 -140
17:57:01.017531 358.26 1344 3588 14076 767 164 -103
17:57:01.025399 358.27 1508 3732 14112 632 322 -106
17:57:01.029845 358.28 1428 3620 13972 504 379 -86
17:57:01.059486 358.29 1384 3644 13996 350 275 -88
17:57:01.062733 358.3 1324 3576 13764 334 241 -43
17:57:01.062897 358.31 1360 3628 14220 425 357 -67
17:57:01.068022 358.32 1408 3660 14124 600 464 -91
17:57:01.085100 358.33 1452 3772 14068 506 408 -113
17:57:01.100208 358.34 1336 3772 13900 281 436 -110
17:57:01.101444 358.35 1264 3788 13784 122 388 -83
17:57:01.120780 358.36 1368 3816 13948 173 277 -72
17:57:01.138040 358.37 1404 3684 14216 322 253 -69
17:57:01.160132 358.38 1268 3852 14004 100 333 -29
17:57:01.160347 358.39 1348 3792 13448 -569 404 40
17:57:01.160777 358.4 1324 3552 13904 -252 160 -3
17:57:01.174908 358.41 1404 3732 14228 888 561 -164
17:57:01.181435 358.42 1400 3908 13896 448 287 -127
17:57:01.201117 358.43 1368 3772 14004 73 188 -68
17:57:01.213611 358.44 1300 3840 14052 294 381 -82
17:57:01.213740 358.45 1020 3712 13432 -519 170 54
17:57:01.213831 358.46 1248 3528 13260 -684 -2 100
17:57:01.234902 358.47 1500 3504 13724 -8 -14 20
17:57:01.243156 358.48 1428 3648 14176 268 -87 7
17:57:01.249654 358.49 1316 3748 14072 289 -70 24
17:57:01.252250 358.5 1276 3796 14124 88 -16 13
17:57:01.272496 358.51 1296 3728 13980 -28 93 19
17:57:01.280153 358.52 1200 3768 14024 72 158 -4
17:57:01.294502 358.53 1388 3796 13844 142 186 -23
17:57:01.311232 358.54 1432 3832 13876 288 292 -43
17:57:01.317999 358.55 1312 3848 13776 265 281 -87
17:57:01.320446 358.56 1336 3784 13816 263 336 -89
17:57:01.331882 358.57 1392 3840 13716 340 208 -67
17:57:01.345263 358.58 1412 3688 13864 427 157 -58
17:57:01.355787 358.59 1432 3888 13952 412 164 -35
17:57:01.375315 358.6 1476 3856 13940 301 233 -35
17:57:01.375505 358.61 1276 3928 14012 107 278 -32
17:57:01.375656 358.62 1428 3788 14056 54 299 -47
17:57:01.401528 358.63 1340 3796 13844 37 254 -28
17:57:01.411220 358.64 1408 3884 13828 -39 264 -11
17:57:01.414600 358.65 1192 3892 13972 -85 283 -22
17:57:01.416354 358.66 1368 3896 13928 -111 263 -18
17:57:01.433960 358.67 1308 3836 13808 -129 253 -38
17:57:01.456292 358.68 1308 3900 13836 -128 247 -42
17:57:01.477363 358.69 1400 3936 13948 -131 246 -21
17:57:01.477662 358.7 1412 3956 13924 -122 246 -30
17:57:01.477941 358.71 1288 3888 13980 -109 290 -19
17:57:01.478206 358.72 1284 3896 13816 -121 286 -52
17:57:01.487503 358.73 1380 3868 13936 -41 287 -63
17:57:01.515739 358.74 1284 3972 13884 -136 229 -61
17:57:01.516950 358.75 1360 3832 14220 -48 244 -79
17:57:01.518297 358.76 1336 3912 13964 -202 550 -43
17:57:01.535981 358.77 1292 3820 13572 -791 117 50
17:57:01.546637 358.78 1400 3808 13808 -365 372 -3
17:57:01.547317 358.79 1332 3932 14084 -107 256 -22
17:57:01.569072 358.8 1316 3876 13944 -425 285 -29
17:57:01.577194 358.81 1312 3936 13712 -581 267 -18
17:57:01.577293 358.82 1356 3896 13876 -861 239 41
17:57:01.584852 358.83 1224 3796 13900 -958 166 40
17:57:01.609786 358.84 1268 3820 14000 -943 57 89
17:57:01.611204 358.85 1388 3764 13976 -1024 66 74
17:57:01.635898 358.86 1436 3868 13960 -1014 132 80
17:57:01.644621 358.87 1376 3780 13988 -972 123 82
17:57:01.644714 358.88 1444 3816 14104 -981 113 61
17:57:01.644834 358.89 1368 3768 14020 -1069 230 52
17:57:01.653342 358.9 1320 3708 14008 -1111 236 22
17:57:01.667380 358.91 1332 3672 13880 -1203 242 63
17:57:01.684823 358.92 1352 3608 13884 -1232 188 68
17:57:01.686764 358.93 1380 3580 13920 -1244 160 69
17:57:01.718247 358.94 1440 3564 13912 -1430 137 100
17:57:01.719580 358.95 1460 3540 14004 -1472 117 95
17:57:01.720638 358.96 1356 3608 14028 -1342 160 87
17:57:01.734261 358.97 1272 3504 14032 -1491 136 87
17:57:01.744378 358.98 1232 3468 13956 -1570 144 97
17:57:01.749725 358.99 1212 3488 13872 -1687 115 122
17:57:01.766996 359.0 1400 3448 13980 -1766 127 111
17:57:01.783673 359.01 1388 3364 13980 -1818 169 144
17:57:01.797436 359.02 1444 3340 14060 -1821 107 149
17:57:01.813481 359.03 1328 3328 13896 -1666 73 152
17:57:01.813789 359.04 1384 3256 14044 -1667 101 138
17:57:01.834213 359.05 1364 3232 14024 -1635 124 130
17:57:01.844405 359.06 1196 3284 13944 -1667 137 129
17:57:01.871704 359.07 1328 3244 14108 -1650 111 153
17:57:01.879546 359.08 1348 3104 13992 -1718 98 137
17:57:01.879731 359.09 1388 3096 14040 -1732 102 141
17:57:01.879864 359.1 1408 3032 13956 -1661 193 98
17:57:01.910853 359.11 1340 3064 14208 -1654 141 99
17:57:01.913150 359.12 1336 3016 14128 -1598 134 109
17:57:01.941910 359.13 1312 2940 14224 -1709 184 102
17:57:01.950184 359.14 1364 2980 14220 -1729 147 112
17:57:01.950345 359.15 1432 2896 13972 -1708 125 111
17:57:01.950459 359.16 1476 2904 14156 -1843 70 139
17:57:01.950556 359.17 1472 2792 14132 -1877 49 129
17:57:01.973314 359.18 1388 2784 14156 -1818 80 132
17:57:01.981007 359.19 1384 2736 14124 -1868 70 67
17:57:01.981126 359.2 1352 2728 14212 -1826 108 96
17:57:01.984702 359.21 1404 2624 14112 -1871 50 74
17:57:01.987223 359.22 1432 2580 14004 -1731 24 121
17:57:02.007431 359.23 1440 2660 14200 -1712 63 54
17:57:02.012431 359.24 1448 2504 14224 -1631 35 52
17:57:02.019939 359.25 1364 2648 14188 -1606 44 76
17:57:02.038735 359.26 1504 2512 14128 -1626 23 41
17:57:02.048509 359.27 1444 2484 14292 -1597 127 19
17:57:02.048647 359.28 1416 2484 14252 -1612 129 16
17:57:02.071793 359.29 1348 2488 14248 -1700 129 11
17:57:02.080887 359.3 1356 2276 14068 -1821 23 24
17:57:02.090312 359.31 1444 2252 14004 -1743 -58 37
17:57:02.115541 359.32 1536 2396 14092 -1615 -30 40
17:57:02.115761 359.33 1408 2268 14284 -1575 51 12
17:57:02.136648 359.34 1364 2256 14348 -1640 97 31
17:57:02.146143 359.35 1316 2236 14304 -1633 63 7
17:57:02.146270 359.36 1436 2188 14212 -1706 37 19
17:57:02.146365 359.37 1424 2156 13988 -1792 59 -2
17:57:02.147396 359.38 1448 2156 13960 -1819 -46 10
17:57:02.171858 359.39 1500 1956 14044 -1804 -134 -9
17:57:02.187132 359.4 1428 1952 14088 -1787 -112 -9
17:57:02.188225 359.41 1468 1924 14296 -1403 88 -55
17:57:02.206994 359.42 1476 2076 14508 -1159 126 -79
17:57:02.220013 359.43 1528 2024 14436 -1295 97 -108
17:57:02.220315 359.44 1356 1948 14092 -1538 23 -47
17:57:02.222333 359.45 1412 1716 14128 -1694 -173 -22
17:57:02.276297 359.46 1436 1792 14152 -1429 -233 39
17:57:02.286776 359.47 1636 1792 14456 -1129 -133 5
17:57:02.287061 359.48 1540 1952 14372 -1312 251 -28
17:57:02.288801 359.49 1508 1908 13704 -2062 265 -68
17:57:02.290290 359.5 1608 1628 14236 -2104 -155 13
17:57:02.291418 359.51 1648 1556 14800 -847 69 -113
17:57:02.298135 359.52 1352 1800 13732 -1129 -497 -22
17:57:02.321993 359.53 1596 1460 14192 -1578 -270 13
17:57:02.347134 359.54 1560 1472 14224 -890 59 -30
17:57:02.353819 359.55 1424 1568 13860 -1454 -304 47
17:57:02.394659 359.56 1664 1404 14036 -1410 -101 59
17:57:02.408051 359.57 1588 1452 14292 -850 65 20
17:57:02.408205 359.58 1620 1628 14880 -414 161 -38
17:57:02.408302 359.59 1548 1720 14716 -635 219 -95
17:57:02.408394 359.6 1572 1756 14376 -1134 212 -49
17:57:02.408486 359.61 1408 1620 14392 -1487 190 -44
17:57:02.408576 359.62 1448 1552 14224 -1635 52 -13
17:57:02.408665 359.63 1552 1556 14344 -1745 -2 -27
17:57:02.421670 359.64 1520 1392 14140 -1769 1 -20
17:57:02.448649 359.65 1528 1348 13968 -1633 -161 -17
17:57:02.457495 359.66 1536 1192 14036 -1423 -123 -30
17:57:02.457778 359.67 1532 1092 14084 -1136 -204 68
17:57:02.457906 359.68 1532 1304 14236 -886 -106 42
17:57:02.462377 359.69 1776 1240 14308 -815 -162 29
17:57:02.477693 359.7 1568 1188 14560 -584 32 17
17:57:02.505659 359.71 1704 1232 14444 -524 -9 -6
17:57:02.511827 359.72 1656 1236 14292 -729 41 42
17:57:02.511924 359.73 1692 1244 14088 -799 -11 35
17:57:02.515444 359.74 1688 1160 14148 -799 -54 11
17:57:02.522987 359.75 1712 1188 14220 -708 -49 -5
17:57:02.542000 359.76 1704 1080 14304 -538 23 -3
17:57:02.545190 359.77 1596 1128 14180 -530 33 9
17:57:02.562834 359.78 1756 1112 14232 -514 103 -18
17:57:02.567122 359.79 1692 1076 14188 -291 104 -3
17:57:02.577756 359.8 1680 1172 14160 -86 168 11
17:57:02.586646 359.81 1640 1140 14112 61 240 23
17:57:02.604028 359.82 1624 1180 14164 281 296 1
17:57:02.626514 359.83 1560 1236 14236 492 305 -11
17:57:02.652417 359.84 1652 1088 14260 567 340 -6
17:57:02.652584 359.85 1704 1076 14268 983 483 -22
17:57:02.652795 359.86 1608 1252 13964 573 372 28
17:57:02.652996 359.87 1596 1220 14016 459 385 22
17:57:02.657844 359.88 1592 1208 14112 985 324 -5
17:57:02.685591 359.89 1604 1236 14272 978 193 8
17:57:02.686676 359.9 1560 1244 14200 1301 300 -22
17:57:02.687924 359.91 1604 1328 14324 1543 299 -8
17:57:02.704798 359.92 1580 1420 14332 1385 332 -12
17:57:02.718462 359.93 1636 1352 14308 1245 292 -17
17:57:02.718601 359.94 1660 1516 14340 1208 342 -26
17:57:02.746536 359.95 1600 1456 14400 1229 364 -30
17:57:02.754652 359.96 1656 1476 14448 1364 438 -50
17:57:02.754933 359.97 1636 1468 14428 1437 529 -71
17:57:02.755310 359.98 1596 1568 14368 1322 490 -78
17:57:02.762498 359.99 1588 1588 14292 1270 481 -80
17:57:02.782747 360.0 1672 1512 14312 1203 371 -67
17:57:02.785127 360.01 1624 1492 14272 1427 317 -26
17:57:02.792834 360.02 1688 1632 14280 1451 289 -17
17:57:02.817231 360.03 1736 1684 14228 1371 303 -23
17:57:02.819145 360.04 1620 1672 14252 1349 406 -29
17:57:02.822678 360.05 1596 1724 14384 1399 437 -72
17:57:02.843513 360.06 1564 1772 14248 1493 350 -27
17:57:02.852640 360.07 1556 1808 14332 1379 316 -26
17:57:02.852980 360.08 1616 1880 14200 1252 328 -24
17:57:02.877339 360.09 1724 2000 14148 1164 390 -39
17:57:02.887411 360.1 1620 1880 14244 1164 393 -13
17:57:02.887688 360.11 1728 1944 14136 1234 393 -12
17:57:02.897797 360.12 1492 2152 14228 1308 354 -28
17:57:02.918622 360.13 1572 2016 14264 1361 386 -64
17:57:02.918810 360.14 1448 2100 14220 1457 323 -1
17:57:02.945729 360.15 1500 2088 14212 1621 321 -30
17:57:02.957780 360.16 1532 2148 14284 1747 329 -11
17:57:02.959905 360.17 1732 2268 14292 1737 401 -63
17:57:02.962041 360.18 1484 2232 14292 1699 404 -68
17:57:02.974385 360.19 1588 2340 14184 1608 412 -60
17:57:02.984356 360.2 1504 2372 14252 1404 437 -78
17:57:02.998204 360.21 1612 2372 14176 1121 409 -71
17:57:03.018652 360.22 1444 2376 14124 1213 394 -61
17:57:03.018957 360.23 1616 2348 14156 1420 343 -68
17:57:03.019326 360.24 1544 2492 14140 1434 331 -69
17:57:03.042428 360.25 1408 2428 14184 1388 392 -98
17:57:03.052772 360.26 1404 2476 14112 1474 404 -107
17:57:03.056951 360.27 1536 2516 14136 1408 352 -117
17:57:03.058572 360.28 1552 2568 14136 1431 354 -119
17:57:03.080198 360.29 1540 2648 14196 1375 458 -140
17:57:03.088783 360.3 1524 2632 14276 1459 477 -128
17:57:03.092772 360.31 1428 2648 14184 1421 450 -138
17:57:03.116454 360.32 1448 2704 14052 1296 474 -143
17:57:03.130994 360.33 1452 2708 14136 1250 442 -152
17:57:03.150337 360.34 1444 2716 13992 1182 372 -169
17:57:03.150433 360.35 1436 2700 13900 966 287 -127
17:57:03.154449 360.36 1520 2644 13864 961 166 -90
17:57:03.156073 360.37 1436 2776 14076 1247 280 -137
17:57:03.177163 360.38 1484 2960 14352 1439 321 -110
17:57:03.184789 360.39 1476 2960 14248 1539 398 -147
17:57:03.190815 360.4 1476 3100 14264 1350 442 -98
17:57:03.216060 360.41 1360 3116 13952 952 425 -111
17:57:03.223761 360.42 1408 3020 14028 768 390 -75
17:57:03.280385 360.43 1408 2940 14248 896 239 -96
17:57:03.286710 360.44 1472 3072 14216 985 326 -88
17:57:03.286944 360.45 1348 3176 13928 280 452 -26
17:57:03.407979 360.46 1476 3004 13968 331 211 -47
17:57:03.419165 360.47 1584 3000 14580 1558 449 -171
17:57:03.419401 360.48 1340 3284 14028 1549 200 -147
17:57:03.419594 360.49 1472 3264 14156 781 156 -118
17:57:03.432826 360.5 1408 3180 14148 1045 523 -109
17:57:03.453697 360.51 1352 3240 13592 -7 61 49
17:57:03.512421 360.52 1396 3040 13492 -293 63 65
17:57:03.519806 360.53 1532 3084 13652 525 64 63
17:57:03.519977 360.54 1504 3164 14152 1135 -148 -28
17:57:03.520114 360.55 1516 3240 14396 1332 -50 -68
17:57:03.520323 360.56 1416 3476 13848 866 274 -113
17:57:03.520597 360.57 1500 3424 13908 974 282 -114
17:57:03.520882 360.58 1392 3436 13980 1105 147 -74
17:57:03.521143 360.59 1472 3456 13936 1033 130 -68
17:57:03.522212 360.6 1532 3508 14076 937 185 -65
17:57:03.554081 360.61 1452 3352 13996 875 233 -51
17:57:03.559293 360.62 1336 3620 14012 529 248 -81
17:57:03.583617 360.63 1508 3516 13956 462 245 -50
17:57:03.590525 360.64 1456 3556 13908 500 271 -72
17:57:03.595597 360.65 1444 3668 13960 527 256 -79
17:57:03.596616 360.66 1408 3684 14032 510 226 -50
17:57:03.598525 360.67 1360 3760 14048 510 296 -102
17:57:03.620143 360.68 1448 3792 14004 515 288 -52
17:57:03.620233 360.69 1424 3796 13776 666 274 -87
17:57:03.620300 360.7 1400 3712 14156 629 291 -103
17:57:03.620364 360.71 1216 3784 13968 759 483 -98
17:57:03.650822 360.72 1300 3916 13540 10 159 2
17:57:03.655549 360.73 1468 3768 13920 -16 337 -48
17:57:03.721389 360.74 1352 3748 14124 600 287 -118
17:57:03.722440 360.75 1376 3824 13936 534 178 -65
17:57:03.723687 360.76 1324 3932 13756 140 269 -49
17:57:03.724980 360.77 1384 3816 13860 19 237 -7
17:57:03.731529 360.78 1324 3892 13992 74 153 -19
17:57:03.747490 360.79 1396 3780 13896 106 89 5
17:57:03.756246 360.8 1388 3892 13816 106 122 -39
17:57:03.756381 360.81 1472 3988 13936 217 159 -39
17:57:03.756489 360.82 1280 3908 13956 407 121 -70
17:57:03.756635 360.83 1508 4104 13960 137 179 -35
17:57:03.756801 360.84 1476 3904 13952 -131 378 -53
17:57:03.768761 360.85 1284 3868 13912 -112 291 -48
17:57:03.841537 360.86 1388 3772 13968 -18 213 -16
17:57:03.857209 360.87 1312 3900 14008 -181 230 -42
17:57:03.857414 360.88 1392 3876 13816 -328 284 -27
17:57:03.857583 360.89 1376 3732 13960 -407 224 -35
17:57:03.857742 360.9 1444 3908 14016 -484 222 -29
17:57:03.857901 360.91 1404 3860 13976 -615 265 12
17:57:03.876940 360.92 1316 3960 13840 -748 251 -15
17:57:03.891392 360.93 1404 3900 13892 -910 181 34
17:57:03.891588 360.94 1436 3884 13980 -1058 175 55
17:57:03.927827 360.95 1384 3792 14064 -1135 193 38
17:57:03.930904 360.96 1432 3860 13872 -1184 236 73
17:57:03.931979 360.97 1340 3816 13980 -1342 190 76
17:57:03.933409 360.98 1304 3752 13952 -1475 214 123
17:57:03.934471 360.99 1284 3764 13812 -1482 95 114
17:57:03.935385 361.0 1452 3628 13988 -1320 50 110
17:57:03.937981 361.01 1368 3580 14048 -1193 53 104
17:57:03.959204 361.02 1436 3720 14128 -1488 137 113
17:57:03.959495 361.03 1484 3556 14012 -1548 225 106
17:57:03.959735 361.04 1356 3540 13888 -1468 120 124
17:57:03.963145 361.05 1344 3500 13916 -1481 100 122
17:57:03.988520 361.06 1456 3504 14008 -1388 122 113
17:57:03.990612 361.07 1256 3528 13844 -1381 112 121
17:57:04.002159 361.08 1484 3456 14080 -1444 155 71
17:57:04.027246 361.09 1488 3328 13944 -1315 178 96
17:57:04.027341 361.1 1408 3368 14072 -1267 138 91
17:57:04.053049 361.11 1364 3324 13956 -1244 167 97
17:57:04.060973 361.12 1424 3384 14000 -1214 142 102
17:57:04.061185 361.13 1360 3252 14140 -1241 134 74
17:57:04.061328 361.14 1424 3356 14044 -1311 144 104
17:57:04.061459 361.15 1352 3276 13884 -1355 165 70
17:57:04.067736 361.16 1432 3256 14080 -1288 118 80
17:57:04.086036 361.17 1464 3256 14096 -1287 98 92
17:57:04.117361 361.18 1372 3208 14120 -1418 127 102
17:57:04.129487 361.19 1452 3120 14040 -1386 152 87
17:57:04.129578 361.2 1420 3136 14108 -1326 144 77
17:57:04.129646 361.21 1420 3088 14216 -1318 168 78
17:57:04.131724 361.22 1400 3120 14028 -1461 144 82
17:57:04.153744 361.23 1444 3096 14060 -1587 141 101
17:57:04.173962 361.24 1544 3016 14112 -1470 149 100
17:57:04.193656 361.25 1436 2984 14104 -1399 154 97
17:57:04.194088 361.26 1376 2932 14160 -1397 130 91
17:57:04.195005 361.27 1488 3012 14196 -1361 150 89
17:57:04.212657 361.28 1512 2836 14008 -1369 109 104
17:57:04.221654 361.29 1384 2968 14040 -1351 154 119
17:57:04.222093 361.3 1364 2772 14196 -1301 143 111
17:57:04.222462 361.31 1348 2840 14076 -1322 155 71
17:57:04.225179 361.32 1512 2896 14080 -1377 192 82
17:57:04.242194 361.33 1464 2836 14128 -1478 175 103
17:57:04.266726 361.34 1508 2732 13980 -1524 141 62
17:57:04.275716 361.35 1420 2680 13936 -1463 144 75
17:57:04.279507 361.36 1416 2664 14248 -1431 159 76
17:57:04.281122 361.37 1376 2748 14240 -1457 122 105
17:57:04.302234 361.38 1392 2608 14152 -1481 126 42
17:57:04.308096 361.39 1460 2588 14176 -1433 133 56
17:57:04.332199 361.4 1504 2620 14220 -1432 147 80
17:57:04.341190 361.41 1452 2560 14052 -1458 152 44
17:57:04.346901 361.42 1540 2572 14004 -1631 41 108
17:57:04.347988 361.43 1496 2464 14068 -1723 8 65
17:57:04.367756 361.44 1428 2432 14252 -1444 126 21
17:57:04.376083 361.45 1372 2356 14352 -1049 188 20
17:57:04.382431 361.46 1420 2472 14400 -1048 186 2
17:57:04.401011 361.47 1380 2384 14188 -1281 172 6
17:57:04.410064 361.48 1384 2304 13940 -1511 -8 55
17:57:04.410431 361.49 1456 2228 14056 -1327 -61 79
17:57:04.419794 361.5 1528 2212 14408 -994 -28 73
17:57:04.428406 361.51 1588 2388 14340 -1158 326 31
17:57:04.450539 361.52 1380 2476 13652 -1957 304 42
17:57:04.466965 361.53 1672 2076 14180 -1824 67 48
17:57:04.479377 361.54 1568 2036 14816 -476 277 -109
17:57:04.479700 361.55 1392 2332 13896 -1027 -433 31
17:57:04.479999 361.56 1596 2080 14016 -1561 -207 50
17:57:04.504662 361.57 1588 2020 14280 -759 121 7
17:57:04.506229 361.58 1332 2160 13776 -1552 -361 107
17:57:04.530923 361.59 1612 1780 13828 -1688 -22 110
17:57:04.531988 361.6 1596 1768 14492 -641 8 11
17:57:04.533890 361.61 1652 2048 14568 -200 51 -65
17:57:04.548073 361.62 1440 2216 14508 -703 185 -43
17:57:04.564548 361.63 1528 2224 14400 -1158 264 -26
17:57:04.566179 361.64 1432 2136 14408 -1316 308 4
17:57:04.582397 361.65 1512 2060 14232 -1402 250 6
17:57:04.594374 361.66 1552 1964 14252 -1437 208 -28
17:57:04.602177 361.67 1480 1888 14036 -1438 155 -9
17:57:04.603503 361.68 1476 1772 14096 -1432 160 -32
17:57:04.619430 361.69 1600 1772 13920 -1214 71 -14
17:57:04.627492 361.7 1500 1796 14104 -884 -37 -13
17:57:04.653655 361.71 1608 1764 14184 -618 -46 31
17:57:04.663156 361.72 1628 1764 14440 -518 48 1
17:57:04.663316 361.73 1612 1680 14476 -495 20 2
17:57:04.663398 361.74 1628 1836 14348 -502 135 -17
17:57:04.684892 361.75 1576 1720 14340 -577 168 -30
17:57:04.695627 361.76 1544 1712 14304 -669 178 -12
17:57:04.699337 361.77 1624 1724 14236 -838 127 -11
17:57:04.700448 361.78 1624 1776 14164 -946 69 -56
17:57:04.715641 361.79 1596 1660 14116 -923 50 -49
17:57:04.727309 361.8 1700 1596 14244 -897 37 -49
17:57:04.735509 361.81 1648 1708 14216 -842 91 -44
17:57:04.751747 361.82 1544 1696 14100 -749 114 -41
17:57:04.759685 361.83 1524 1604 14148 -704 154 -14
17:57:04.761296 361.84 1556 1564 14296 -623 147 -28
17:57:04.786277 361.85 1556 1664 14124 -553 161 -21
17:57:04.795127 361.86 1528 1600 14464 -417 146 -48
17:57:04.795240 361.87 1644 1660 14328 -493 76 -8
17:57:04.802372 361.88 1576 1576 14252 -219 292 -1
17:57:04.817384 361.89 1588 1624 14108 -453 80 8
17:57:04.847605 361.9 1652 1544 14132 -754 98 -9
17:57:04.867027 361.91 1524 1516 14140 -436 -13 15
17:57:04.867188 361.92 1660 1500 14412 -170 18 -2
17:57:04.867289 361.93 1652 1496 14196 -54 71 -22
17:57:04.867384 361.94 1616 1596 14184 -99 124 -25
17:57:04.880068 361.95 1468 1496 14216 -66 71 25
17:57:04.905995 361.96 1604 1592 14156 -78 47 6
17:57:04.928150 361.97 1620 1520 14288 -90 136 -12
17:57:04.928391 361.98 1576 1588 14132 108 152 -20
17:57:04.928638 361.99 1572 1572 14232 321 179 -10
17:57:04.940660 362.0 1568 1520 14176 432 231 -39
17:57:04.965448 362.01 1576 1588 14292 493 323 -55
17:57:04.965591 362.02 1516 1608 14264 339 369 -43
17:57:04.965705 362.03 1484 1632 14368 240 342 -10
17:57:04.981676 362.04 1448 1620 14268 363 263 -28
17:57:04.997173 362.05 1624 1656 14332 417 255 -36
17:57:04.997309 362.06 1524 1704 14204 365 259 -41
17:57:04.997417 362.07 1604 1660 14160 436 261 -50
17:57:05.016235 362.08 1516 1708 14144 552 196 -30
17:57:05.028540 362.09 1572 1652 14332 532 222 -24
17:57:05.037166 362.1 1564 1780 14224 542 241 -40
17:57:05.038085 362.11 1552 1828 14140 426 264 0
17:57:05.058679 362.12 1604 1728 14052 323 320 19
17:57:05.074141 362.13 1660 1748 14236 390 344 -13
17:57:05.095771 362.14 1648 1748 14276 456 321 10
17:57:05.095928 362.15 1696 1716 14284 468 263 -7
17:57:05.096056 362.16 1664 1828 14136 504 217 -1
17:57:05.119633 362.17 1488 1788 14232 506 212 37
17:57:05.128702 362.18 1508 1776 14356 607 191 9
17:57:05.141389 362.19 1600 1892 14344 640 196 15
17:57:05.164403 362.2 1704 1880 14192 674 217 6
17:57:05.164611 362.21 1680 1876 14128 743 259 -22
17:57:05.164821 362.22 1584 1856 14260 785 325 -23
17:57:05.190982 362.23 1616 1912 14108 804 297 -35
17:57:05.197727 362.24 1524 1924 14160 848 328 -9
17:57:05.197867 362.25 1636 2084 14140 885 313 -37
17:57:05.238603 362.26 1528 1976 14224 925 338 -69
17:57:05.263153 362.27 1564 2044 14092 977 269 -15
17:57:05.266434 362.28 1652 2028 14220 977 350 -14
17:57:05.267717 362.29 1540 2004 14272 1046 337 -39
17:57:05.268829 362.3 1596 2112 14212 1049 331 -44
17:57:05.269932 362.31 1596 2088 14196 1020 355 -61
17:57:05.282898 362.32 1616 2136 14204 1093 352 -69
17:57:05.297874 362.33 1476 2244 14124 1097 319 -70
17:57:05.298061 362.34 1636 2264 14148 1136 312 -71
17:57:05.298296 362.35 1432 2256 14320 1182 381 -72
17:57:05.316468 362.36 1584 2284 14220 1147 301 -52
17:57:05.331133 362.37 1536 2360 14160 1149 317 -54
17:57:05.341517 362.38 1632 2380 14256 1165 312 -71
17:57:05.362886 362.39 1676 2324 14204 1146 326 -90
17:57:05.363008 362.4 1696 2432 14140 1134 440 -109
17:57:05.363122 362.41 1628 2520 14268 1031 455 -95
17:57:05.363263 362.42 1584 2456 14140 850 483 -96
17:57:05.372817 362.43 1476 2424 14148 869 440 -124
17:57:05.387550 362.44 1572 2580 14140 907 368 -83
17:57:05.423362 362.45 1508 2608 14072 806 405 -82
17:57:05.435132 362.46 1516 2564 13968 636 291 -63
17:57:05.435309 362.47 1556 2464 14040 670 209 -58
17:57:05.435476 362.48 1520 2440 14332 992 312 -51
17:57:05.436526 362.49 1584 2684 14328 1401 320 -98
17:57:05.457810 362.5 1528 2720 14292 1361 411 -136
17:57:05.466239 362.51 1532 2760 14188 1075 434 -120
17:57:05.469827 362.52 1332 2708 14080 735 294 -73
17:57:05.496414 362.53 1552 2644 14132 762 234 -70
17:57:05.501525 362.54 1452 2692 14248 991 200 -67
17:57:05.521102 362.55 1436 2788 14288 890 403 -6
17:57:05.530658 362.56 1380 2884 13744 31 389 21
17:57:05.530925 362.57 1640 2552 14440 734 421 -88
17:57:05.531158 362.58 1492 2884 14512 1866 409 -197
17:57:05.558885 362.59 1360 2964 13896 647 95 -71
17:57:05.566806 362.6 1508 2844 14196 588 393 -104
17:57:05.567924 362.61 1456 2832 13916 609 255 -60
17:57:05.576009 362.62 1372 2872 13376 -364 -100 81
17:57:05.597629 362.63 1484 2652 13784 256 136 21
17:57:05.597770 362.64 1632 2756 14164 1138 18 -62
17:57:05.617781 362.65 1556 2940 14420 1339 -1 -110
17:57:05.635887 362.66 1456 3044 14208 1186 98 -113
17:57:05.658655 362.67 1368 3132 14316 869 211 -42
17:57:05.669945 362.68 1336 3136 14220 780 278 -48
17:57:05.670146 362.69 1464 3016 14044 746 323 -73
17:57:05.670363 362.7 1456 3108 14108 749 332 -78
17:57:05.674782 362.71 1480 3052 13864 773 395 -99
17:57:05.677447 362.72 1504 3032 13908 872 318 -120
17:57:05.700855 362.73 1424 3096 13968 964 208 -107
17:57:05.723848 362.74 1528 3032 13908 1031 148 -80
17:57:05.733061 362.75 1568 3092 14124 1057 131 -109
17:57:05.733226 362.76 1556 3176 14056 1092 92 -42
17:57:05.733374 362.77 1520 3196 14112 1000 169 -98
17:57:05.733509 362.78 1468 3300 14184 941 228 -76
17:57:05.775578 362.79 1504 3204 14044 844 285 -107
17:57:05.777117 362.8 1404 3320 14012 739 236 -77
17:57:05.801112 362.81 1568 3284 13968 686 196 -51
17:57:05.801263 362.82 1332 3360 14084 701 240 -59
17:57:05.801438 362.83 1508 3400 14016 592 239 -60
17:57:05.801621 362.84 1372 3316 13984 655 198 -100
17:57:05.807841 362.85 1520 3364 13820 718 148 -73
17:57:05.822393 362.86 1472 3388 13904 739 211 -66
17:57:05.832430 362.87 1480 3360 14060 800 213 -36
17:57:05.854362 362.88 1376 3424 13864 846 228 -49
17:57:05.865427 362.89 1404 3604 13928 957 241 -94
17:57:05.869435 362.9 1496 3496 13992 861 117 -74
17:57:05.870651 362.91 1548 3592 14320 1046 449 -102
17:57:05.892224 362.92 1408 3572 13844 844 423 -81
17:57:05.900796 362.93 1328 3560 13536 166 302 -68
17:57:05.904743 362.94 1460 3424 13832 409 290 -105
17:57:05.925275 362.95 1436 3516 14228 950 182 -115
17:57:05.933924 362.96 1512 3588 14024 771 139 -97
17:57:05.934111 362.97 1380 3648 13912 416 224 -87
17:57:05.955298 362.98 1372 3576 13900 365 140 -43
17:57:05.967328 362.99 1324 3620 14012 444 83 -21
17:57:05.974780 363.0 1560 3688 13968 472 71 -63
17:57:05.976508 363.01 1556 3696 14044 522 200 -98
17:57:05.988624 363.02 1484 3728 13868 606 150 -72
17:57:06.004634 363.03 1508 3736 14008 658 175 -86
17:57:06.006357 363.04 1460 3756 13908 514 247 -77
17:57:06.027212 363.05 1432 3776 13840 405 296 -84
17:57:06.032665 363.06 1512 3696 13820 357 289 -68
17:57:06.032892 363.07 1516 3756 13972 377 243 -87
17:57:06.060037 363.08 1472 3732 13852 314 219 -53
17:57:06.072045 363.09 1356 3704 13808 240 206 -44
17:57:06.073884 363.1 1420 3780 13832 351 218 -62
17:57:06.092928 363.11 1556 3748 13840 349 239 -67
17:57:06.100833 363.12 1532 3852 13900 356 228 -60
17:57:06.109799 363.13 1388 3764 13892 310 231 -55
17:57:06.112470 363.14 1460 3760 14060 234 200 -41
17:57:06.135742 363.15 1460 3772 13824 191 260 -54
17:57:06.135901 363.16 1488 3796 13904 185 266 -55
17:57:06.156074 363.17 1512 3816 13996 173 266 -55
17:57:06.167822 363.18 1448 3928 13868 198 257 -62
17:57:06.169991 363.19 1504 3976 13936 132 248 -43
17:57:06.172475 363.2 1440 3828 13972 151 232 -11
17:57:06.185223 363.21 1356 3928 14016 160 257 -42
17:57:06.200820 363.22 1452 3900 14032 210 234 -26
17:57:06.206856 363.23 1540 3968 13988 165 255 -66
17:57:06.207959 363.24 1460 3900 13816 95 238 -63
17:57:06.230280 363.25 1420 3932 13780 18 250 -2
17:57:06.236240 363.26 1516 3952 13808 -38 234 -38
17:57:06.242593 363.27 1416 3956 13816 -44 242 -21
17:57:06.270671 363.28 1412 3896 13856 -79 249 -28
17:57:06.271653 363.29 1484 3876 13856 -107 282 -62
17:57:06.272954 363.3 1472 3816 13964 -135 265 -37
17:57:06.289700 363.31 1484 3892 13920 -226 249 -57
17:57:06.303078 363.32 1464 3912 14000 -206 282 -54
17:57:06.303191 363.33 1496 3948 13936 -368 405 -48
17:57:06.310012 363.34 1360 3920 14044 -579 357 -40
17:57:06.327176 363.35 1376 3972 13880 -712 338 -26
17:57:06.334966 363.36 1492 3900 14008 -895 388 -8
17:57:06.358847 363.37 1408 3916 13960 -1103 330 19
17:57:06.369033 363.38 1448 3984 14104 -1362 330 15
17:57:06.369178 363.39 1344 3904 14040 -1610 370 53
17:57:06.369976 363.4 1392 3784 14068 -1791 339 41
17:57:06.395299 363.41 1336 3796 13864 -2157 311 86
17:57:06.404145 363.42 1368 3616 13956 -2298 290 102
17:57:06.409861 363.43 1300 3540 14004 -2146 192 105
17:57:06.411454 363.44 1388 3520 13856 -1942 150 94
17:57:06.428884 363.45 1524 3536 13732 -1850 96 126
17:57:06.456145 363.46 1424 3480 13876 -1636 147 107
17:57:06.472838 363.47 1520 3448 13860 -1411 93 127
17:57:06.473139 363.48 1568 3472 13864 -1331 141 126
17:57:06.473370 363.49 1428 3416 14084 -1279 180 123
17:57:06.492943 363.5 1432 3392 13980 -1176 165 110
17:57:06.510577 363.51 1412 3460 13988 -1285 209 122
17:57:06.512339 363.52 1420 3376 14112 -1351 163 98
17:57:06.513070 363.53 1376 3272 14052 -1347 202 90
17:57:06.529260 363.54 1468 3388 13992 -1376 176 119
17:57:06.538034 363.55 1400 3356 13912 -1460 185 128
17:57:06.544854 363.56 1504 3380 14176 -1517 241 80
17:57:06.546073 363.57 1512 3356 13936 -1662 170 101
17:57:06.623806 363.58 1464 3152 13896 -1858 74 135
17:57:06.635016 363.59 1272 3036 13784 -1799 81 138
17:57:06.635130 363.6 1540 3032 14076 -1430 195 110
17:57:06.635198 363.61 1436 3084 14160 -1230 179 76
17:57:06.635327 363.62 1404 3112 14156 -1282 243 32
17:57:06.635440 363.63 1420 3164 14064 -1387 182 61
17:57:06.635503 363.64 1292 3028 13924 -1633 102 120
17:57:06.635565 363.65 1484 3000 13980 -1643 -38 140
17:57:06.639858 363.66 1388 2832 14232 -1356 -16 149
17:57:06.664912 363.67 1432 2896 14240 -1363 255 142
17:57:06.668760 363.68 1384 2956 13708 -2250 308 158
17:57:06.679585 363.69 1728 2668 14228 -1985 101 144
17:57:06.682313 363.7 1608 2752 14544 -671 230 -12
17:57:06.703396 363.71 1268 2852 13844 -1431 -309 129
17:57:06.703586 363.72 1548 2620 14108 -1671 15 129
17:57:06.728826 363.73 1360 2604 14068 -1385 9 144
17:57:06.737366 363.74 1320 2612 13504 -2148 -371 249
17:57:06.739490 363.75 1504 2332 13708 -1747 -107 173
17:57:06.740572 363.76 1596 2400 14512 -676 -45 87
17:57:06.745004 363.77 1496 2676 14576 -560 9 11
17:57:06.759783 363.78 1476 2784 14468 -1037 73 74
17:57:06.791957 363.79 1428 2780 14396 -1394 143 81
17:57:06.807600 363.8 1476 2692 14276 -1526 181 97
17:57:06.807710 363.81 1556 2700 14232 -1606 178 105
17:57:06.807777 363.82 1416 2684 13972 -1633 220 86
17:57:06.807841 363.83 1560 2564 14180 -1644 218 83
17:57:06.826987 363.84 1472 2344 14040 -1662 204 44
17:57:06.844648 363.85 1428 2312 13832 -1615 11 80
17:57:06.846346 363.86 1624 2320 14024 -1291 -32 70
17:57:06.872241 363.87 1648 2204 14268 -1047 -21 46
17:57:06.883234 363.88 1616 2272 14232 -936 15 27
17:57:06.883481 363.89 1612 2280 14360 -883 53 9
17:57:06.883894 363.9 1592 2304 14368 -997 158 28
17:57:06.904636 363.91 1588 2200 14112 -1132 152 9
17:57:06.914375 363.92 1524 2188 14220 -1171 120 -16
17:57:06.917433 363.93 1580 2148 14220 -1215 111 1
17:57:06.945845 363.94 1636 2204 14252 -1374 123 7
17:57:06.946905 363.95 1464 2072 14068 -1440 97 -25
17:57:06.948027 363.96 1572 1988 14120 -1355 47 28
17:57:06.964968 363.97 1572 2116 14100 -1315 78 -23
17:57:06.977044 363.98 1628 2076 14056 -1191 99 -23
17:57:06.977787 363.99 1604 2104 14204 -1145 120 -11
17:57:07.005614 364.0 1456 2020 14272 -1055 112 -36
17:57:07.007064 364.01 1364 1980 14132 -887 90 -22
17:57:07.007938 364.02 1476 2056 14316 -842 141 -46
17:57:07.025506 364.03 1500 2008 14268 -975 108 -27
17:57:07.037426 364.04 1600 1876 14340 -747 314 -69
17:57:07.037653 364.05 1488 1920 14128 -1010 127 -31
17:57:07.062037 364.06 1612 1840 13816 -1428 -32 5
17:57:07.065476 364.07 1640 1848 14436 -917 -55 -7
17:57:07.084212 364.08 1636 1940 14444 -730 -45 -36
17:57:07.097572 364.09 1624 2016 14220 -1072 -2 -73
17:57:07.099838 364.1 1500 1984 14216 -1335 4 -18
17:57:07.101839 364.11 1600 1836 14276 -1271 -131 -3
17:57:07.123224 364.12 1600 1848 14228 -1260 -88 -42
17:57:07.149114 364.13 1744 1712 14384 -1228 53 -42
17:57:07.150035 364.14 1688 1696 14296 -1040 59 -73
17:57:07.151863 364.15 1628 1740 14136 -970 128 -78
17:57:07.171195 364.16 1640 1688 14280 -1024 139 -43
17:57:07.185990 364.17 1732 1672 14224 -1034 91 -59
17:57:07.192663 364.18 1772 1672 14168 -1000 94 -40
17:57:07.192824 364.19 1624 1580 14344 -1017 133 -43
17:57:07.223803 364.2 1520 1608 14288 -843 65 -46
17:57:07.224975 364.21 1636 1468 14188 -804 64 -54
17:57:07.226086 364.22 1564 1568 14148 -761 72 -72
17:57:07.236373 364.23 1728 1464 14156 -574 8 -13
17:57:07.259237 364.24 1516 1480 14248 -450 62 -14
17:57:07.259410 364.25 1636 1536 14220 -401 106 -13
17:57:07.259549 364.26 1724 1516 14064 -400 112 -5
17:57:07.262353 364.27 1596 1548 14184 -376 113 21
17:57:07.280708 364.28 1636 1512 14120 -300 186 10
17:57:07.301401 364.29 1660 1528 14188 -218 206 29
17:57:07.301509 364.3 1632 1472 14112 -86 207 -6
17:57:07.318056 364.31 1640 1580 14168 39 191 -13
17:57:07.328067 364.32 1576 1576 14164 141 190 17
17:57:07.339796 364.33 1648 1508 14112 299 229 5
17:57:07.348279 364.34 1624 1476 14188 448 248 7
17:57:07.352890 364.35 1680 1548 14156 581 230 -4
17:57:07.372943 364.36 1612 1572 14260 603 293 -3
17:57:07.383494 364.37 1652 1640 14156 703 274 -3
17:57:07.383628 364.38 1620 1520 14180 779 260 -1
17:57:07.401661 364.39 1648 1644 14308 946 262 -15
17:57:07.411278 364.4 1660 1752 14088 1019 330 -34
17:57:07.412696 364.41 1580 1720 14368 1041 321 -22
17:57:07.437611 364.42 1636 1716 14308 973 341 -43
17:57:07.442503 364.43 1704 1704 14312 948 318 -5
17:57:07.463629 364.44 1660 1780 14384 913 322 -10
17:57:07.464821 364.45 1688 1764 14272 871 291 -45
17:57:07.465496 364.46 1636 1776 14156 831 239 -41
17:57:07.477642 364.47 1652 1776 14160 971 204 -4
17:57:07.494449 364.48 1688 1788 14312 1079 256 -33
17:57:07.494987 364.49 1604 1876 14252 1066 279 -19
17:57:07.512202 364.5 1524 1840 14220 1057 274 -16
17:57:07.526979 364.51 1656 1980 14264 1143 272 -35
17:57:07.527344 364.52 1672 1928 14156 1192 329 -44
17:57:07.532547 364.53 1572 1996 14204 1147 327 -50
17:57:07.556900 364.54 1584 2020 14160 1239 340 -46
17:57:07.558062 364.55 1576 2128 14204 1348 368 -58
17:57:07.583015 364.56 1468 2072 14304 1189 358 -77
17:57:07.591128 364.57 1676 2156 14120 1114 356 -67
17:57:07.594476 364.58 1476 2184 13976 1024 198 -24
17:57:07.596318 364.59 1536 2132 14132 1061 272 -54
17:57:07.600182 364.6 1684 2172 14232 1378 376 -63
17:57:07.619359 364.61 1560 2332 14448 1606 515 -85
17:57:07.632124 364.62 1556 2304 14300 1405 452 -99
17:57:07.633347 364.63 1484 2316 14216 1142 375 -67
17:57:07.654855 364.64 1532 2304 14108 958 266 -26
17:57:07.659391 364.65 1628 2372 14100 1028 160 -5
17:57:07.680054 364.66 1616 2368 14268 1248 227 -50
17:57:07.695355 364.67 1520 2488 14164 1009 504 26
17:57:07.695570 364.68 1476 2544 13664 218 190 29
17:57:07.697204 364.69 1776 2300 14488 1001 405 -58
17:57:07.714494 364.7 1604 2508 14480 2243 352 -180
17:57:07.727529 364.71 1324 2808 13944 1058 63 -36
17:57:07.737661 364.72 1624 2484 14296 908 330 -68
17:57:07.758801 364.73 1456 2576 13988 1096 346 -87
17:57:07.758986 364.74 1492 2644 13484 -51 -51 76
17:57:07.759073 364.75 1712 2380 13960 603 203 -5
17:57:07.779245 364.76 1612 2528 14148 1489 122 -84
17:57:07.796045 364.77 1712 2616 14584 1569 65 -160
17:57:07.826198 364.78 1520 2948 14356 1290 162 -139
17:57:07.831204 364.79 1544 2904 14188 977 223 -77
17:57:07.831323 364.8 1452 2844 14244 921 308 -49
17:57:07.831423 364.81 1436 2832 14116 821 327 -74
17:57:07.833068 364.82 1520 2800 14212 938 322 -93
17:57:07.849478 364.83 1512 2892 13944 1002 326 -91
17:57:07.865846 364.84 1484 2748 14060 1030 325 -104
17:57:07.866090 364.85 1536 2812 14008 1085 249 -86
17:57:07.870330 364.86 1512 2920 13852 1242 133 -97
17:57:07.893588 364.87 1596 2896 13912 1350 110 -81
17:57:07.922869 364.88 1576 2908 14040 1373 155 -103
17:57:07.930170 364.89 1584 2976 14180 1387 157 -86
17:57:07.930262 364.9 1528 3080 14080 1275 226 -80
17:57:07.930335 364.91 1488 3008 14216 1160 260 -76
17:57:07.930407 364.92 1424 3108 14028 1089 286 -81
17:57:07.951695 364.93 1552 3128 14148 1056 290 -105
17:57:07.959547 364.94 1480 3084 13896 891 300 -102
17:57:07.969619 364.95 1616 3132 13936 766 231 -107
17:57:07.971502 364.96 1576 3212 14008 672 261 -100
17:57:07.997903 364.97 1528 3148 14060 686 248 -84
17:57:08.019617 364.98 1516 3320 14040 726 225 -46
17:57:08.030583 364.99 1572 3204 14044 781 217 -84
17:57:08.030828 365.0 1496 3184 14000 844 199 -72
17:57:08.031084 365.01 1580 3336 14000 1002 195 -95
17:57:08.035004 365.02 1456 3324 14160 1026 106 -82
17:57:08.052033 365.03 1604 3324 14428 1256 465 -149
17:57:08.062914 365.04 1516 3460 13868 939 364 -63
17:57:08.064824 365.05 1480 3404 13820 510 353 -78
17:57:08.072381 365.06 1416 3328 13748 594 180 -112
17:57:08.093910 365.07 1548 3272 14020 1008 188 -142
17:57:08.115596 365.08 1500 3428 14068 1163 213 -128
17:57:08.132863 365.09 1496 3496 13948 766 198 -85
17:57:08.132995 365.1 1532 3444 14000 565 235 -68
17:57:08.133081 365.11 1480 3532 13916 640 97 -64
17:57:08.149658 365.12 1472 3612 13996 642 106 -73
17:57:08.167411 365.13 1564 3592 13928 657 162 -74
17:57:08.167529 365.14 1376 3612 13888 699 105 -90
17:57:08.167602 365.15 1452 3624 14000 771 189 -115
17:57:08.169885 365.16 1540 3656 14180 821 199 -141
17:57:08.185810 365.17 1600 3616 14008 593 271 -99
17:57:08.216404 365.18 1604 3604 13920 502 277 -93
17:57:08.229329 365.19 1560 3648 14040 560 257 -107
17:57:08.229469 365.2 1464 3768 13860 607 233 -82
17:57:08.229821 365.21 1472 3652 13852 441 246 -81
17:57:08.253959 365.22 1512 3700 13924 417 201 -76
17:57:08.261356 365.23 1580 3592 13816 527 312 -64
17:57:08.261549 365.24 1460 3616 13896 582 305 -53
17:57:08.267199 365.25 1528 3664 13784 473 309 -89
17:57:08.285179 365.26 1480 3812 13960 430 206 -55
17:57:08.295838 365.27 1508 3780 14032 368 232 -74
17:57:08.314505 365.28 1496 3744 14000 343 262 -61
17:57:08.329286 365.29 1544 3868 14048 385 260 -69
17:57:08.329518 365.3 1496 3804 14104 361 269 -63
17:57:08.329859 365.31 1496 3908 13908 331 263 -57
17:57:08.351816 365.32 1452 3932 13908 286 243 -67
17:57:08.361340 365.33 1552 3828 14052 351 249 -94
17:57:08.366118 365.34 1468 3904 14024 320 245 -55
17:57:08.386205 365.35 1484 3880 13900 270 271 -45
17:57:08.395037 365.36 1436 3876 13828 211 236 -53
17:57:08.395155 365.37 1512 3872 13860 202 244 -33
17:57:08.402445 365.38 1488 3856 13880 235 235 -38
17:57:08.447565 365.39 1480 3820 13764 194 264 -58
17:57:08.467408 365.4 1476 3872 13852 174 233 -82
17:57:08.467557 365.41 1536 3904 13940 107 244 -70
17:57:08.467669 365.42 1520 3912 13832 100 285 -41
17:57:08.472708 365.43 1424 3816 14028 76 300 -57
17:57:08.475125 365.44 1532 3916 13784 89 254 -76
17:57:08.498964 365.45 1628 3888 13900 11 265 -60
17:57:08.499447 365.46 1436 3928 13832 -36 254 -57
17:57:08.502145 365.47 1508 4020 13940 -58 283 -61
17:57:08.503914 365.48 1484 3916 13960 -92 305 -34
17:57:08.524859 365.49 1492 3916 13816 -154 261 -43
17:57:08.532399 365.5 1540 3944 13920 -143 265 -48
17:57:08.532515 365.51 1548 3816 13864 -233 271 -34
17:57:08.552177 365.52 1444 3864 13892 -255 277 -40
17:57:08.569505 365.53 1464 3908 13880 -303 232 -34
17:57:08.571500 365.54 1496 3980 13992 -344 233 -39
17:57:08.589578 365.55 1416 3924 13948 -354 269 -24
17:57:08.600392 365.56 1424 4012 13824 -376 247 -14
17:57:08.606978 365.57 1540 3944 13948 -437 277 -17
17:57:08.627750 365.58 1424 3968 13960 -534 285 -13
17:57:08.639476 365.59 1484 3908 13912 -641 278 0
17:57:08.644415 365.6 1452 3808 13888 -701 238 16
17:57:08.645836 365.61 1548 3848 13932 -775 155 40
17:57:08.670615 365.62 1532 3828 13968 -815 228 44
17:57:08.672552 365.63 1520 3960 13788 -753 231 22
17:57:08.695474 365.64 1524 3836 14016 -810 289 22
17:57:08.695866 365.65 1536 3872 14032 -895 355 -4
17:57:08.696370 365.66 1492 3888 14128 -1006 293 10
17:57:08.710981 365.67 1428 3692 13992 -1137 293 10
17:57:08.731308 365.68 1484 3832 13856 -1273 337 23
17:57:08.749468 365.69 1408 3716 13944 -1436 263 42
17:57:08.749599 365.7 1472 3704 13832 -1602 154 96
17:57:08.749699 365.71 1424 3524 13980 -1387 273 74
17:57:08.772198 365.72 1372 3556 14088 -1118 363 39
17:57:08.783780 365.73 1428 3640 13896 -1246 297 53
17:57:08.804745 365.74 1392 3644 13944 -1509 190 69
17:57:08.815367 365.75 1440 3572 13844 -1568 144 112
17:57:08.815470 365.76 1552 3428 13888 -1513 41 105
17:57:08.815545 365.77 1480 3556 14268 -1426 27 150
17:57:08.833536 365.78 1464 3512 13956 -1809 287 174
17:57:08.844884 365.79 1424 3444 13476 -2310 70 225
17:57:08.845431 365.8 1676 3224 14420 -1258 236 60
17:57:08.845642 365.81 1564 3428 14348 -426 336 1
17:57:08.862552 365.82 1376 3504 13888 -1435 -83 109
17:57:08.870405 365.83 1468 3220 14076 -1590 153 137
17:57:08.886322 365.84 1412 3236 13652 -1597 53 203
17:57:08.899968 365.85 1272 3052 13556 -2168 -194 264
17:57:08.900109 365.86 1552 2900 13848 -1472 -102 187
17:57:08.905596 365.87 1608 3100 14476 -522 -153 90
17:57:08.924906 365.88 1596 3208 14364 -786 -67 91
17:57:08.925043 365.89 1476 3196 14328 -1164 -1 120
17:57:08.944042 365.9 1380 3324 14236 -1396 151 169
17:57:08.974815 365.91 1444 3172 14144 -1482 242 134
17:57:08.985946 365.92 1600 3140 14024 -1523 269 112
17:57:08.986087 365.93 1464 2976 13960 -1546 261 124
17:57:08.986167 365.94 1576 3032 13920 -1505 332 107
17:57:08.986245 365.95 1420 2956 13720 -1552 188 150
17:57:09.004936 365.96 1520 2820 13924 -1488 128 127
17:57:09.015724 365.97 1480 2824 13900 -1193 90 128
17:57:09.017625 365.98 1476 2764 14128 -1015 100 105
17:57:09.057807 365.99 1512 2780 14300 -864 147 72
17:57:09.065622 366.0 1632 2860 14240 -864 238 56
17:57:09.066241 366.01 1540 2800 14044 -908 262 46
17:57:09.066931 366.02 1524 2808 14116 -1077 259 94
17:57:09.067368 366.03 1412 2828 13984 -1184 164 100
17:57:09.106220 366.04 1560 2748 14200 -1245 203 93
17:57:09.113928 366.05 1448 2832 14164 -1268 193 89
17:57:09.114054 366.06 1584 2732 14100 -1390 193 99
17:57:09.129367 366.07 1556 2568 14224 -1329 209 51
17:57:09.151313 366.08 1432 2620 14212 -1153 188 60
17:57:09.151466 366.09 1400 2588 14000 -1140 191 59
17:57:09.151661 366.1 1460 2664 14152 -1027 243 24
17:57:09.175291 366.11 1452 2728 14052 -909 263 11
17:57:09.182672 366.12 1496 2568 14256 -822 273 26
17:57:09.182822 366.13 1508 2692 14300 -799 313 6
17:57:09.182974 366.14 1528 2436 14188 -840 280 -15
17:57:09.183165 366.15 1404 2536 14320 -720 422 -7
17:57:09.205191 366.16 1420 2628 14036 -1027 260 8
17:57:09.221927 366.17 1464 2516 13824 -1433 184 60
17:57:09.222941 366.18 1516 2328 14068 -746 119 -21
17:57:09.238534 366.19 1560 2448 14432 -483 123 -56
17:57:09.250046 366.2 1500 2500 14116 -884 107 -11
17:57:09.259652 366.21 1560 2492 14184 -1092 125 -10
17:57:09.261265 366.22 1592 2532 14128 -986 87 12
17:57:09.282647 366.23 1568 2364 14168 -956 73 -3
17:57:09.285506 366.24 1576 2492 14392 -1099 172 -38
17:57:09.294858 366.25 1616 2372 14392 -1138 234 -10
17:57:09.319359 366.26 1524 2252 14120 -1035 273 -66
17:57:09.319531 366.27 1604 2424 14068 -1100 220 -59
17:57:09.321128 366.28 1444 2264 14312 -1171 283 -45
17:57:09.342554 366.29 1484 2168 14176 -1278 237 -45
17:57:09.350911 366.3 1448 2280 14212 -1359 274 -31
17:57:09.354901 366.31 1516 2120 14212 -1284 155 -41
17:57:09.383907 366.32 1580 2080 14108 -1171 139 -49
17:57:09.385142 366.33 1452 2128 14044 -1197 128 2
17:57:09.385831 366.34 1444 2132 14132 -1087 136 -56
17:57:09.407934 366.35 1460 2060 14124 -925 177 -36
17:57:09.415538 366.36 1584 2108 14456 -828 125 -31
17:57:09.423539 366.37 1536 2080 14360 -925 197 -24
17:57:09.443157 366.38 1464 2100 14148 -1082 160 20
17:57:09.452094 366.39 1460 2120 14260 -1175 185 4
17:57:09.454566 366.4 1560 1980 14220 -1043 171 -21
17:57:09.456284 366.41 1512 2060 14256 -964 191 -36
17:57:09.477478 366.42 1544 1944 14284 -903 213 -66
17:57:09.486174 366.43 1496 2040 14204 -874 185 -13
17:57:09.504672 366.44 1544 2076 14192 -947 202 -22
17:57:09.517563 366.45 1580 2000 14220 -897 219 -36
17:57:09.517799 366.46 1484 1940 14320 -734 190 -29
17:57:09.519956 366.47 1452 1960 14288 -734 240 -22
17:57:09.540159 366.48 1472 1864 14288 -706 211 -35
17:57:09.550572 366.49 1556 1848 14268 -708 134 -38
17:57:09.559784 366.5 1584 1876 14172 -704 204 -47
17:57:09.561530 366.51 1568 1872 14160 -679 234 -36
17:57:09.575858 366.52 1552 1928 14176 -728 214 -63
17:57:09.609470 366.53 1528 1820 14172 -736 164 -34
17:57:09.617196 366.54 1488 1824 14148 -631 156 -49
17:57:09.617356 366.55 1528 1780 14148 -514 166 -33
17:57:09.619717 366.56 1524 1804 14184 -482 179 -51
17:57:09.621912 366.57 1680 1776 14176 -434 172 -50
17:57:09.643544 366.58 1576 1736 14212 -403 212 -11
17:57:09.651647 366.59 1540 1660 14044 -375 158 -23
17:57:09.656898 366.6 1492 1704 14216 -223 143 7
17:57:09.658014 366.61 1572 1756 14160 -133 130 -15
17:57:09.680317 366.62 1540 1700 14100 -13 161 4
17:57:09.687974 366.63 1520 1752 14132 127 194 -7
17:57:09.721305 366.64 1556 1748 14088 208 206 -5
17:57:09.722529 366.65 1544 1616 14196 322 241 4
17:57:09.722927 366.66 1656 1816 14072 443 271 1
17:57:09.731197 366.67 1572 1876 14116 524 299 -12
17:57:09.752128 366.68 1496 1904 14108 663 317 2
17:57:09.754579 366.69 1596 1880 14236 680 341 -20
17:57:09.756929 366.7 1572 1992 14160 579 338 -28
17:57:09.780007 366.71 1488 1908 14060 541 273 -36
17:57:09.788473 366.72 1464 1860 14112 510 232 -7
17:57:09.789925 366.73 1584 1920 14344 792 314 -18
17:57:09.797400 366.74 1552 2056 14392 1045 404 -57
17:57:09.818299 366.75 1472 2076 14204 899 383 -49
17:57:09.828690 366.76 1440 2044 14200 699 232 1
17:57:09.840407 366.77 1488 1924 14024 725 110 -2
17:57:09.860831 366.78 1560 1940 14088 970 101 15
17:57:09.861512 366.79 1508 1968 14396 1226 228 20
17:57:09.861940 366.8 1536 2100 14084 927 519 37
17:57:09.877374 366.81 1524 2132 13516 247 322 28
17:57:09.888927 366.82 1748 1888 14596 1081 263 -2
17:57:09.903892 366.83 1616 2228 14536 2500 231 -99
17:57:09.940594 366.84 1448 2472 13992 1140 38 -36
17:57:09.941944 366.85 1536 2184 14384 1328 400 -79
17:57:09.957207 366.86 1400 2296 13908 1179 190 12
17:57:09.957369 366.87 1412 2284 13536 140 -39 104
17:57:09.957490 366.88 1528 2104 13980 1087 226 18
17:57:09.957625 366.89 1680 2376 14492 1967 191 -70
17:57:09.962624 366.9 1500 2604 14608 1626 283 -111
17:57:10.007687 366.91 1444 2544 14376 1129 337 -91
17:57:10.022429 366.92 1484 2496 14360 913 371 -1
17:57:10.022828 366.93 1480 2576 14296 903 380 6
17:57:10.023283 366.94 1408 2528 14232 908 351 -22
17:57:10.023688 366.95 1484 2584 14088 892 320 -40
17:57:10.030083 366.96 1488 2528 13988 869 303 -48
17:57:10.055304 366.97 1500 2612 13908 915 309 -32
17:57:10.056918 366.98 1512 2556 13960 1071 183 -28
17:57:10.079702 366.99 1556 2628 14120 1377 126 -61
17:57:10.088299 367.0 1608 2512 14184 1614 139 -113
17:57:10.088517 367.01 1588 2744 14284 1665 222 -114
17:57:10.089748 367.02 1504 2840 14248 1482 315 -126
17:57:10.097495 367.03 1420 2744 14088 1366 329 -128
17:57:10.113391 367.04 1536 2800 14048 1215 262 -59
17:57:10.129632 367.05 1404 2836 14040 1027 273 -99
17:57:10.133014 367.06 1516 2804 14196 1055 236 -90
17:57:10.156922 367.07 1408 2916 14204 1074 239 -110
17:57:10.157065 367.08 1536 2960 14060 984 186 -93
17:57:10.165561 367.09 1536 3036 13964 966 196 -71
17:57:10.177245 367.1 1516 2924 14016 990 187 -129
17:57:10.189566 367.11 1504 3036 14024 1047 190 -74
17:57:10.191639 367.12 1464 3048 14060 1122 230 -96
17:57:10.212535 367.13 1488 3132 14000 1288 130 -97
17:57:10.220874 367.14 1444 3164 14032 1414 80 -133
17:57:10.234041 367.15 1536 3264 14284 1501 520 -166
17:57:10.254503 367.16 1320 3332 13908 1076 437 -78
17:57:10.254641 367.17 1388 3220 13760 697 335 -83
17:57:10.274980 367.18 1444 3128 13820 796 276 -77
17:57:10.292016 367.19 1420 3188 13936 1004 122 -116
17:57:10.299205 367.2 1460 3200 14080 1209 179 -138
17:57:10.327464 367.21 1560 3328 14024 1074 160 -110
17:57:10.327584 367.22 1468 3316 14116 832 146 -76
17:57:10.327679 367.23 1396 3320 14052 854 97 -85
17:57:10.332561 367.24 1552 3340 13984 761 93 -52
17:57:10.333923 367.25 1516 3444 14128 766 132 -83
17:57:10.361729 367.26 1552 3332 14092 875 137 -85
17:57:10.361964 367.27 1508 3512 14128 1052 139 -131
17:57:10.380468 367.28 1520 3532 14020 948 214 -122
17:57:10.390046 367.29 1584 3400 13944 780 273 -100
17:57:10.390217 367.3 1360 3496 13960 685 252 -92
17:57:10.390367 367.31 1504 3448 14080 760 272 -103
17:57:10.443703 367.32 1508 3444 14052 717 271 -69
17:57:10.457664 367.33 1528 3572 13936 550 254 -70
17:57:10.457887 367.34 1520 3484 13792 604 263 -87
17:57:10.458087 367.35 1404 3588 13912 730 275 -64
17:57:10.458278 367.36 1292 3584 13928 765 299 -77
17:57:10.458494 367.37 1448 3572 13812 604 271 -81
17:57:10.465459 367.38 1408 3544 13932 501 213 -84
17:57:10.493231 367.39 1416 3620 14028 529 221 -58
17:57:10.494273 367.4 1440 3700 13944 543 224 -79
17:57:10.495258 367.41 1492 3776 13916 499 267 -57
17:57:10.511835 367.42 1356 3720 13936 468 252 -74
17:57:10.522630 367.43 1416 3644 14076 535 298 -70
17:57:10.524948 367.44 1420 3764 13964 479 224 -65
17:57:10.532856 367.45 1484 3780 13928 477 277 -68
17:57:10.547368 367.46 1384 3724 14076 495 271 -46
17:57:10.564769 367.47 1404 3864 13788 435 258 -58
17:57:10.566937 367.48 1444 3796 13908 336 264 -28
17:57:10.615564 367.49 1412 3752 13884 285 293 -37
17:57:10.629008 367.5 1504 3764 14064 334 262 -84
17:57:10.629193 367.51 1492 3804 14032 322 280 -83
17:57:10.629326 367.52 1444 3812 13912 260 262 -64
17:57:10.652739 367.53 1448 3796 14008 316 306 -70
17:57:10.659544 367.54 1496 3776 13864 333 243 -72
17:57:10.659932 367.55 1336 3804 13872 356 280 -57
17:57:10.660175 367.56 1492 3832 13900 312 263 -57
17:57:10.669686 367.57 1364 3800 13888 272 267 -68
17:57:10.691021 367.58 1420 3932 13832 271 247 -62
17:57:10.691333 367.59 1452 3956 13800 163 313 -72
17:57:10.691567 367.6 1468 3904 13844 168 263 -61
17:57:10.716444 367.61 1448 3888 13916 94 279 -25
17:57:10.724453 367.62 1516 3932 14072 126 241 -38
17:57:10.750729 367.63 1360 3792 13844 111 266 -38
17:57:10.757783 367.64 1372 3984 13932 68 287 -63
17:57:10.757956 367.65 1420 3828 13824 38 302 -72
17:57:10.758075 367.66 1384 3996 13956 71 306 -63
17:57:10.767507 367.67 1400 3960 13900 48 347 -68
17:57:10.769539 367.68 1356 3920 14052 -16 347 -51
17:57:10.795827 367.69 1324 3916 13824 -108 310 -71
17:57:10.814912 367.7 1388 3840 13800 -247 251 -41
17:57:10.824227 367.71 1428 3848 13820 -306 224 -21
17:57:10.824435 367.72 1512 3900 13896 -191 260 -13
17:57:10.824769 367.73 1444 3948 14080 -25 397 -74
17:57:10.852979 367.74 1452 4044 14100 -65 382 -90
17:57:10.864249 367.75 1356 3924 13928 -209 329 -66
17:57:10.864509 367.76 1372 4000 13816 -378 281 -27
17:57:10.864742 367.77 1312 3880 13876 -380 187 -4
17:57:10.887511 367.78 1460 3964 13988 -353 100 20
17:57:10.897784 367.79 1420 3952 13860 -805 295 86
17:57:10.902093 367.8 1356 3728 13500 -1355 85 113
17:57:10.905418 367.81 1636 3748 14256 -501 281 41
17:57:10.934231 367.82 1556 4072 14472 218 431 -119
17:57:10.934353 367.83 1344 4056 13984 -859 136 6
17:57:10.954932 367.84 1416 3872 13852 -943 281 35
17:57:10.969925 367.85 1360 3840 13692 -1056 172 96
17:57:10.970116 367.86 1276 3716 13524 -1627 13 157
17:57:10.986099 367.87 1388 3548 13724 -1156 -57 139
17:57:10.994018 367.88 1556 3668 14064 -609 -153 60
17:57:11.010646 367.89 1520 3856 14356 -780 -145 82
17:57:11.032698 367.9 1400 3784 14144 -1127 -145 117
17:57:11.045813 367.91 1288 3812 13800 -1279 -124 152
17:57:11.046582 367.92 1424 3808 13928 -1256 -41 127
17:57:11.047054 367.93 1428 3680 13820 -1000 22 122
17:57:11.047290 367.94 1440 3648 14016 -887 149 99
17:57:11.070465 367.95 1400 3636 13912 -917 272 55
17:57:11.071658 367.96 1476 3660 13752 -1074 336 31
17:57:11.072770 367.97 1484 3536 13916 -1079 241 33
17:57:11.085508 367.98 1428 3492 13852 -956 237 43
17:57:11.096596 367.99 1432 3540 13888 -1023 200 84
17:57:11.102278 368.0 1496 3540 14036 -1072 191 83
17:57:11.119473 368.01 1532 3424 14076 -1163 250 81
17:57:11.131288 368.02 1456 3372 13856 -1241 234 85
17:57:11.148569 368.03 1552 3436 14088 -1314 254 123
17:57:11.158443 368.04 1368 3452 14104 -1350 295 83
17:57:11.164621 368.05 1420 3316 14056 -1339 286 100
17:57:11.166363 368.06 1372 3316 14064 -1428 284 102
17:57:11.183503 368.07 1408 3376 14020 -1475 282 70
17:57:11.192616 368.08 1404 3340 14012 -1460 232 106
17:57:11.202150 368.09 1496 3276 13832 -1364 210 80
17:57:11.203555 368.1 1464 3228 14020 -1290 235 79
17:57:11.225202 368.11 1360 3196 14008 -1118 294 94
17:57:11.227511 368.12 1416 3140 14036 -978 336 66
17:57:11.298708 368.13 1416 3240 14052 -930 357 19
17:57:11.299740 368.14 1384 3272 14412 -944 292 13
17:57:11.301929 368.15 1436 3228 14244 -884 571 16
17:57:11.306114 368.16 1292 3140 13960 -1343 425 98
17:57:11.326966 368.17 1288 2928 13684 -1749 260 91
17:57:11.327148 368.18 1432 2972 14092 -1238 235 49
17:57:11.327294 368.19 1424 3028 14280 -789 208 16
17:57:11.327416 368.2 1388 3016 14176 -1210 186 68
17:57:11.327637 368.21 1420 3016 14100 -1486 185 117
17:57:11.395541 368.22 1372 3004 14052 -1409 137 114
17:57:11.396718 368.23 1428 2948 14084 -1365 127 78
17:57:11.397983 368.24 1432 2920 13984 -1350 169 77
17:57:11.401069 368.25 1360 2940 14208 -1342 289 26
17:57:11.403794 368.26 1408 2932 14248 -1376 284 -17
17:57:11.404911 368.27 1376 2916 14132 -1461 317 54
17:57:11.407222 368.28 1436 2776 14156 -1480 278 34
17:57:11.428121 368.29 1292 2712 14072 -1526 264 45
17:57:11.428231 368.3 1444 2568 14056 -1569 197 32
17:57:11.458515 368.31 1460 2660 14220 -1463 144 51
17:57:11.464450 368.32 1456 2624 14176 -1440 173 18
17:57:11.464614 368.33 1428 2620 14196 -1511 92 65
17:57:11.517805 368.34 1460 2568 14028 -1423 115 14
17:57:11.526866 368.35 1440 2544 14152 -1264 183 4
17:57:11.527194 368.36 1388 2580 14076 -1371 191 8
17:57:11.527486 368.37 1408 2572 13920 -1530 178 16
17:57:11.527774 368.38 1320 2456 14136 -1463 160 1
17:57:11.528061 368.39 1456 2424 14088 -1411 134 -7
17:57:11.528342 368.4 1452 2452 14080 -1417 150 8
17:57:11.539692 368.41 1424 2304 14076 -1174 112 -5
17:57:11.562664 368.42 1508 2404 14216 -1056 172 -2
17:57:11.573651 368.43 1508 2356 14204 -1234 199 29
17:57:11.599112 368.44 1448 2308 14192 -1219 286 -34
17:57:11.599296 368.45 1292 2344 14156 -1073 152 -20
17:57:11.603195 368.46 1400 2408 14056 -1234 169 -58
17:57:11.604382 368.47 1444 2160 14228 -1129 154 -8
17:57:11.605552 368.48 1372 2308 14328 -1143 162 -32
17:57:11.622233 368.49 1508 2272 14240 -1156 169 -14
17:57:11.631834 368.5 1368 2180 14196 -1125 177 -42
17:57:11.634834 368.51 1508 2188 14268 -1116 208 -42
17:57:11.685697 368.52 1420 2136 14160 -1177 241 -97
17:57:11.694136 368.53 1468 2200 14208 -1187 185 -44
17:57:11.735184 368.54 1428 2196 14088 -1137 101 -32
17:57:11.738131 368.55 1508 2072 14100 -1122 152 -46
17:57:11.739342 368.56 1460 1972 14224 -989 110 -38
17:57:11.740172 368.57 1576 2148 14208 -962 174 -56
17:57:11.741612 368.58 1488 2036 14208 -969 181 -62
17:57:11.764248 368.59 1412 1964 14268 -979 142 -66
17:57:11.764394 368.6 1420 1968 14156 -942 164 -55
17:57:11.764639 368.61 1412 1864 14168 -976 146 -68
17:57:11.764870 368.62 1500 1884 14200 -939 178 -81
17:57:11.765096 368.63 1488 1916 14284 -870 180 -49
17:57:11.769656 368.64 1424 1920 14352 -811 189 -38
17:57:11.785142 368.65 1364 1880 14272 -844 136 -51
17:57:11.796524 368.66 1428 1868 14004 -862 122 4
17:57:11.796882 368.67 1380 1780 13988 -845 27 -11
17:57:11.819247 368.68 1520 1760 14128 -701 56 3
17:57:11.829394 368.69 1484 1652 14332 -292 185 -1
17:57:11.829936 368.7 1452 1892 14292 -48 256 -39
17:57:11.837231 368.71 1488 1844 14288 -21 260 -13
17:57:11.856469 368.72 1408 1876 14128 -28 187 15
17:57:11.869544 368.73 1448 1828 14108 60 115 21
17:57:11.871698 368.74 1392 1800 14240 264 125 12
17:57:11.875372 368.75 1440 1844 14432 294 290 32
17:57:11.898151 368.76 1408 1968 13916 -208 512 48
17:57:11.898308 368.77 1400 1724 13672 -543 -71 129
17:57:11.917282 368.78 1620 1696 14656 667 284 20
17:57:11.936966 368.79 1552 2080 14304 1323 76 -66
17:57:11.939306 368.8 1404 1896 13824 142 -79 53
17:57:11.953078 368.81 1612 1708 14544 910 330 -40
17:57:11.967131 368.82 1368 2112 13780 734 112 10
17:57:11.967357 368.83 1316 1828 13632 20 68 105
17:57:11.972724 368.84 1492 1848 14208 906 114 68
17:57:11.990004 368.85 1536 2128 14812 1588 246 -12
17:57:11.997313 368.86 1524 2260 14656 1268 378 -55
17:57:12.024161 368.87 1424 2192 14420 853 329 -18
17:57:12.034115 368.88 1372 2148 14176 667 272 36
17:57:12.034587 368.89 1388 2228 14096 621 254 48
17:57:12.036352 368.9 1432 2276 14332 724 252 58
17:57:12.055932 368.91 1496 2128 14064 790 264 15
17:57:12.070034 368.92 1512 2124 14100 783 260 52
17:57:12.093199 368.93 1504 2120 13940 814 184 36
17:57:12.125135 368.94 1504 2156 13852 1021 154 36
17:57:12.132927 368.95 1460 2136 14136 1426 159 41
17:57:12.133246 368.96 1584 2164 14236 1606 135 -25
17:57:12.133653 368.97 1524 2284 14452 1680 247 -47
17:57:12.134043 368.98 1484 2312 14380 1568 305 -40
17:57:12.138861 368.99 1388 2448 14272 1414 415 -58
17:57:12.154608 369.0 1416 2380 14268 1229 402 -52
17:57:12.165073 369.01 1460 2512 14080 1081 297 -55
17:57:12.177831 369.02 1520 2456 14052 987 249 -49
17:57:12.198375 369.03 1460 2524 14068 1055 266 -22
17:57:12.198557 369.04 1480 2468 14216 1115 272 -61
17:57:12.219331 369.05 1568 2536 14108 1042 261 -26
17:57:12.244695 369.06 1488 2584 14144 1003 237 -55
17:57:12.245243 369.07 1408 2652 14132 1142 251 -45
17:57:12.266964 369.08 1304 2656 14256 1375 255 -60
17:57:12.267206 369.09 1324 2768 14040 1424 235 -95
17:57:12.289041 369.1 1528 2788 14428 1506 535 -85
17:57:12.300301 369.11 1296 2808 14136 1350 563 -105
17:57:12.300440 369.12 1428 2868 14020 768 372 -43
17:57:12.300600 369.13 1292 2748 14008 864 361 -97
17:57:12.300787 369.14 1308 2796 14040 1144 220 -94
17:57:12.312469 369.15 1476 2864 14156 1151 203 -122
17:57:12.338588 369.16 1508 2860 14044 1227 264 -139
17:57:12.338753 369.17 1560 2904 14180 1107 205 -113
17:57:12.338952 369.18 1268 2980 14168 1043 166 -107
17:57:12.360579 369.19 1316 2924 14100 1071 137 -52
17:57:12.370093 369.2 1408 2976 13896 973 167 -98
17:57:12.370259 369.21 1408 3072 14188 1012 197 -116
17:57:12.370391 369.22 1396 3040 14156 1087 172 -118
17:57:12.394947 369.23 1500 3068 14176 1098 203 -126
17:57:12.404283 369.24 1448 3104 14152 972 234 -117
17:57:12.409731 369.25 1344 3164 14096 881 253 -75
17:57:12.411892 369.26 1376 3052 14244 898 270 -118
17:57:12.433764 369.27 1352 3156 14076 915 273 -73
17:57:12.433897 369.28 1424 3092 13920 759 252 -51
17:57:12.437396 369.29 1420 3132 13952 776 198 -94
17:57:12.455495 369.3 1456 3184 14052 903 254 -111
17:57:12.492575 369.31 1472 3204 14212 1021 270 -94
17:57:12.501086 369.32 1364 3224 13948 1001 286 -94
17:57:12.501332 369.33 1380 3300 13980 888 250 -78
17:57:12.501582 369.34 1412 3284 14140 855 265 -110
17:57:12.506092 369.35 1352 3408 14028 799 228 -67
17:57:12.513469 369.36 1468 3400 14068 745 223 -49
17:57:12.543827 369.37 1360 3472 13948 788 255 -91
17:57:12.544033 369.38 1324 3488 13936 751 236 -77
17:57:12.559386 369.39 1368 3468 14000 778 221 -66
17:57:12.566957 369.4 1396 3428 13936 748 223 -89
17:57:12.567106 369.41 1280 3480 14048 780 256 -101
17:57:12.578645 369.42 1248 3460 14072 799 251 -80
17:57:12.589546 369.43 1328 3564 13976 750 271 -85
17:57:12.591462 369.44 1420 3532 13888 654 298 -94
17:57:12.612342 369.45 1420 3476 13992 665 330 -96
17:57:12.623810 369.46 1348 3600 13968 628 293 -112
17:57:12.625328 369.47 1416 3536 14088 599 290 -101
17:57:12.642109 369.48 1404 3584 13924 581 283 -104
17:57:12.655693 369.49 1400 3680 13908 582 257 -117
17:57:12.721993 369.5 1324 3632 13932 612 288 -109
17:57:12.723190 369.51 1260 3768 13900 539 261 -110
17:57:12.724307 369.52 1388 3624 13896 570 230 -106
17:57:12.726088 369.53 1400 3648 13952 539 237 -77
17:57:12.730700 369.54 1384 3716 13920 537 232 -65
17:57:12.756826 369.55 1300 3704 13976 558 262 -68
17:57:12.756999 369.56 1376 3732 13924 489 280 -72
17:57:12.757241 369.57 1308 3676 14040 562 281 -85
17:57:12.757471 369.58 1356 3740 13880 528 316 -84
17:57:12.757697 369.59 1376 3732 13940 489 300 -97
17:57:12.760077 369.6 1380 3776 13812 325 273 -84
17:57:12.781368 369.61 1288 3752 13952 262 257 -37
17:57:12.812161 369.62 1420 3768 13696 257 269 -66
17:57:12.820382 369.63 1388 3744 13868 255 345 -91
17:57:12.820575 369.64 1460 3792 14048 390 283 -62
17:57:12.822604 369.65 1396 3904 14112 456 335 -106
17:57:12.825111 369.66 1256 4032 13860 276 391 -106
17:57:12.910209 369.67 1252 3872 13840 90 295 -59
17:57:12.921878 369.68 1268 3908 13972 208 175 -75
17:57:12.922054 369.69 1360 3864 14100 104 193 -22
17:57:12.922165 369.7 1272 4000 13340 -628 325 70
17:57:12.922268 369.71 1400 3660 13740 -579 29 70
17:57:12.922368 369.72 1548 3944 14472 637 378 -109
17:57:12.925902 369.73 1280 4056 14168 489 258 -131
17:57:13.042176 369.74 1324 3900 13752 -212 191 -27
17:57:13.055960 369.75 1376 3888 13852 -83 329 -19
17:57:13.056263 369.76 1152 3924 13468 -518 150 75
17:57:13.056441 369.77 1400 3544 13576 -488 -3 114
17:57:13.056613 369.78 1360 3696 13896 -69 -87 65
17:57:13.056786 369.79 1436 3888 14164 40 -187 4
17:57:13.056953 369.8 1328 4012 14068 -256 -127 1
17:57:13.057119 369.81 1292 3944 14112 -435 -72 75
17:57:13.057287 369.82 1248 3852 13916 -396 -32 23
17:57:13.057456 369.83 1200 3836 13856 -266 96 33
17:57:13.057625 369.84 1356 4004 13992 -287 292 -17
17:57:13.058593 369.85 1312 3844 13788 -521 258 49
17:57:13.059715 369.86 1400 3768 13992 -410 211 22
17:57:13.079977 369.87 1408 3868 13968 -300 199 12
17:57:13.093078 369.88 1400 3780 14132 -405 205 25
17:57:13.093200 369.89 1312 3756 14136 -591 262 18
17:57:13.110609 369.9 1312 3748 13992 -834 311 30
17:57:13.125454 369.91 1496 3808 13888 -1059 304 68
17:57:13.125601 369.92 1444 3736 14084 -1207 313 71
17:57:13.125699 369.93 1316 3744 13924 -1265 265 68
17:57:13.127592 369.94 1432 3660 13800 -1196 221 85
17:57:13.145182 369.95 1404 3728 13896 -1189 257 71
17:57:13.187053 369.96 1392 3632 13928 -1215 244 61
17:57:13.193063 369.97 1368 3592 13844 -1218 188 40
17:57:13.193327 369.98 1360 3624 13892 -1056 220 46
17:57:13.275154 369.99 1392 3660 14148 -1002 315 32
17:57:13.291622 370.0 1360 3676 14004 -1074 305 29
17:57:13.291725 370.01 1316 3560 13872 -1034 263 35
17:57:13.291789 370.02 1408 3640 13880 -1055 288 14
17:57:13.291851 370.03 1416 3520 14336 -897 458 4
17:57:13.291912 370.04 1348 3596 13980 -1260 470 70
17:57:13.346580 370.05 1284 3460 13780 -1857 270 105
17:57:13.354178 370.06 1404 3360 13860 -1435 289 42
17:57:13.354407 370.07 1324 3284 14052 -1085 104 64
17:57:13.354665 370.08 1380 3360 13932 -1334 130 87
17:57:13.355000 370.09 1312 3284 13900 -1402 173 81
17:57:13.355256 370.1 1400 3252 14020 -1369 154 92
17:57:13.355508 370.11 1360 3276 14024 -1228 147 47
17:57:13.357313 370.12 1396 3240 14112 -1210 214 73
17:57:13.362659 370.13 1304 3268 14016 -1259 233 49
17:57:13.365705 370.14 1384 3252 14184 -1231 256 33
17:57:13.369082 370.15 1412 3176 14096 -1173 292 55
17:57:13.395038 370.16 1372 3188 14000 -1309 341 38
17:57:13.395306 370.17 1312 3200 14176 -1478 307 55
17:57:13.406462 370.18 1416 3036 13984 -1517 304 39
17:57:13.421987 370.19 1364 3044 14000 -1468 253 26
17:57:13.422204 370.2 1408 3052 14000 -1420 285 61
17:57:13.422457 370.21 1304 3072 13916 -1502 208 49
17:57:13.425527 370.22 1272 2916 13904 -1544 186 43
17:57:13.445420 370.23 1244 2988 14076 -1373 138 71
17:57:13.459066 370.24 1328 2820 14160 -1247 117 61
17:57:13.459195 370.25 1348 2856 14064 -1296 141 56
17:57:13.465117 370.26 1448 2964 14144 -1267 191 39
17:57:13.512145 370.27 1400 2868 14256 -1355 225 32
17:57:13.521607 370.28 1344 2888 14116 -1353 173 77
17:57:13.521741 370.29 1444 2772 14140 -1316 206 74
17:57:13.521826 370.3 1340 2748 14116 -1326 209 41
17:57:13.521912 370.31 1336 2708 14176 -1422 194 62
17:57:13.524659 370.32 1312 2804 14276 -1385 199 4
17:57:13.546754 370.33 1360 2652 14104 -1323 113 32
17:57:13.555386 370.34 1304 2720 14072 -1297 107 70
17:57:13.564751 370.35 1344 2704 14132 -1261 126 18
17:57:13.566385 370.36 1376 2644 14192 -1200 93 22
17:57:13.588892 370.37 1256 2644 13988 -1216 158 19
17:57:13.589160 370.38 1416 2640 14104 -1197 183 -15
17:57:13.599992 370.39 1396 2644 14148 -1103 153 -20
17:57:13.627642 370.4 1332 2512 14156 -1107 190 -1
17:57:13.627795 370.41 1356 2512 14224 -1012 187 -11
17:57:13.641413 370.42 1364 2532 14268 -987 200 -19
17:57:13.658603 370.43 1272 2524 14236 -1033 160 -12
17:57:13.659029 370.44 1416 2420 14304 -1069 169 -48
17:57:13.659984 370.45 1248 2420 14248 -1060 175 -12
17:57:13.677466 370.46 1396 2464 14156 -1052 163 -39
17:57:13.690733 370.47 1368 2320 14284 -1020 136 -35
17:57:13.699699 370.48 1444 2356 14352 -1041 172 -37
17:57:13.702180 370.49 1448 2384 13988 -1149 160 -28
17:57:13.725421 370.5 1236 2328 13944 -1296 78 -34
17:57:13.725576 370.51 1372 2208 14132 -1223 41 -37
17:57:13.750405 370.52 1572 2344 14224 -950 133 -23
17:57:13.762760 370.53 1576 2272 14344 -826 242 -70
17:57:13.762890 370.54 1408 2252 14264 -787 217 -57
17:57:13.762963 370.55 1308 2204 14252 -861 236 -37
17:57:13.782434 370.56 1336 2168 14184 -1040 192 -36
17:57:13.793955 370.57 1340 2116 13920 -1076 96 0
17:57:13.794962 370.58 1520 2192 14420 -879 81 -6
17:57:13.823544 370.59 1368 2272 14556 -1141 352 -8
17:57:13.825246 370.6 1188 2336 13628 -2018 147 5
17:57:13.825418 370.61 1476 1896 14224 -1674 -67 26
17:57:13.845337 370.62 1628 1988 14724 -162 212 -140
17:57:13.857117 370.63 1272 2136 13884 -681 -156 -25
17:57:13.857311 370.64 1456 1920 13960 -1324 -200 40
17:57:13.883424 370.65 1376 1852 14264 -491 220 3
17:57:13.890110 370.66 1344 1920 13796 -1126 -242 105
17:57:13.890336 370.67 1404 1808 13780 -1212 -47 95
17:57:13.892291 370.68 1516 1860 14436 -211 45 25
17:57:13.899815 370.69 1548 2088 14688 169 159 -43
17:57:13.915146 370.7 1512 2160 14520 -142 237 -35
17:57:13.952515 370.71 1380 2128 14324 -402 182 8
17:57:13.960314 370.72 1292 2112 14316 -470 228 9
17:57:13.966140 370.73 1408 2032 14128 -387 234 18
17:57:13.967282 370.74 1492 1984 14192 -401 258 17
17:57:13.970160 370.75 1428 1932 14108 -388 243 30
17:57:13.995544 370.76 1356 1812 14108 -303 175 22
17:57:14.000375 370.77 1388 1836 14024 -123 145 62
17:57:14.001287 370.78 1408 1884 14204 203 120 40
17:57:14.046925 370.79 1492 1832 14144 565 150 29
17:57:14.123809 370.8 1488 1900 14212 765 118 7
17:57:14.127020 370.81 1544 1960 14320 722 203 -5
17:57:14.127152 370.82 1500 2016 14260 710 286 8
17:57:14.127382 370.83 1376 2044 14184 678 294 -8
17:57:14.129748 370.84 1400 2120 14196 608 297 -46
17:57:14.133742 370.85 1496 2140 14232 586 321 -51
17:57:14.134475 370.86 1444 2116 14104 613 261 -21
17:57:14.137520 370.87 1524 2152 14204 578 283 -23
17:57:14.164594 370.88 1432 2076 14160 682 243 25
17:57:14.164700 370.89 1384 2092 14252 711 242 20
17:57:14.164766 370.9 1460 2224 14188 792 254 5
17:57:14.164829 370.91 1376 2288 14148 890 260 5
17:57:14.164891 370.92 1456 2312 14220 1057 294 -32
17:57:14.164951 370.93 1328 2228 14228 1036 235 -41
17:57:14.165012 370.94 1372 2292 14424 1163 561 -44
17:57:14.170398 370.95 1392 2396 14052 861 348 -1
17:57:14.194571 370.96 1432 2216 14004 528 297 1
17:57:14.196417 370.97 1388 2236 14148 878 271 -18
17:57:14.200296 370.98 1352 2304 14204 1011 125 -31
17:57:14.223234 370.99 1384 2336 14036 1135 149 -37
17:57:14.232104 371.0 1464 2468 14164 1135 174 -29
17:57:14.232228 371.01 1412 2540 14180 1106 202 -12
17:57:14.252492 371.02 1412 2584 14180 1124 188 -19
17:57:14.262631 371.03 1372 2504 14104 1124 176 -62
17:57:14.262838 371.04 1420 2468 14060 1135 169 -51
17:57:14.279987 371.05 1300 2560 14160 1346 260 -88
17:57:14.293125 371.06 1448 2688 14160 1436 287 -84
17:57:14.297427 371.07 1532 2676 14276 1360 361 -93
17:57:14.314568 371.08 1464 2640 14360 1176 371 -122
17:57:14.324735 371.09 1372 2720 14220 985 343 -66
17:57:14.352197 371.1 1340 2676 14288 916 402 -106
17:57:14.387886 371.11 1476 2704 14244 951 504 -107
17:57:14.410946 371.12 1360 2760 14100 573 470 -119
17:57:14.429719 371.13 1328 2780 13988 266 389 -75
17:57:14.430151 371.14 1320 2812 13968 202 336 -93
17:57:14.430506 371.15 1344 2672 14176 346 262 -93
17:57:14.430879 371.16 1324 2656 14068 456 198 -82
17:57:14.431110 371.17 1480 2724 13952 499 200 -63
17:57:14.431236 371.18 1444 2720 14096 560 196 -33
17:57:14.431358 371.19 1376 2928 14012 617 219 -37
17:57:14.432799 371.2 1336 2912 14160 765 274 -59
17:57:14.449889 371.21 1320 2912 13972 851 275 -57
17:57:14.462447 371.22 1336 2948 14176 856 260 -45
17:57:14.481654 371.23 1364 2828 13996 815 245 -70
17:57:14.492150 371.24 1332 2924 14024 910 248 -55
17:57:14.492418 371.25 1384 2960 14156 947 228 -54
17:57:14.492671 371.26 1448 2972 14224 887 254 -57
17:57:14.499778 371.27 1316 3024 14164 817 177 -69
17:57:14.507569 371.28 1292 3136 14112 811 216 -47
17:57:14.532593 371.29 1348 2996 13956 829 240 -47
17:57:14.532968 371.3 1280 3044 14040 844 232 -89
17:57:14.537587 371.31 1304 3124 14104 804 283 -90
17:57:14.555604 371.32 1284 3136 14296 900 227 -76
17:57:14.584514 371.33 1312 3084 14000 950 258 -60
17:57:14.593804 371.34 1344 3252 13968 906 232 -102
17:57:14.594004 371.35 1264 3248 13904 898 271 -92
17:57:14.616712 371.36 1332 3284 14068 834 257 -66
17:57:14.631670 371.37 1388 3164 13976 923 224 -94
17:57:14.631920 371.38 1312 3208 14096 991 226 -119
17:57:14.632149 371.39 1344 3228 13988 1019 244 -102
17:57:14.634873 371.4 1348 3300 14116 953 249 -77
17:57:14.650831 371.41 1360 3320 13988 884 218 -65
17:57:14.685928 371.42 1416 3360 13796 755 165 -81
17:57:14.696622 371.43 1368 3412 13980 734 134 -47
17:57:14.696754 371.44 1324 3360 13996 837 218 -64
17:57:14.696820 371.45 1436 3372 14036 1003 297 -77
17:57:14.696881 371.46 1212 3452 14112 1086 350 -124
17:57:14.723499 371.47 1224 3572 14020 953 353 -126
17:57:14.737288 371.48 1228 3512 13944 782 322 -102
17:57:14.737436 371.49 1260 3508 13896 622 272 -88
17:57:14.755380 371.5 1356 3508 14172 659 192 -55
17:57:14.764690 371.51 1284 3472 13948 470 325 -17
17:57:14.776151 371.52 1256 3612 13440 -364 255 20
17:57:14.783288 371.53 1508 3400 14096 82 182 -14
17:57:14.784734 371.54 1532 3668 14536 1380 388 -143
17:57:14.808895 371.55 1280 3848 13996 593 105 -68
17:57:14.838828 371.56 1404 3564 14092 325 358 -70
17:57:14.851067 371.57 1188 3680 13808 174 229 24
17:57:14.851193 371.58 1224 3464 13408 -402 -94 120
17:57:14.851291 371.59 1352 3396 13712 188 -26 80
17:57:14.851383 371.6 1400 3524 13988 778 -253 31
17:57:14.852177 371.61 1476 3776 14204 897 -278 -21
17:57:14.867836 371.62 1340 3760 14184 596 -85 -49
17:57:14.883648 371.63 1256 3676 14016 418 78 -6
17:57:14.890314 371.64 1200 3756 14004 479 172 -13
17:57:14.910430 371.65 1316 3764 13856 431 244 -44
17:57:14.923092 371.66 1384 3844 14020 353 325 -48
17:57:14.940905 371.67 1384 3748 13944 305 376 -89
17:57:14.951461 371.68 1252 3724 13676 297 360 -80
17:57:14.952162 371.69 1308 3788 13908 501 299 -86
17:57:14.954030 371.7 1276 3796 13780 574 244 -113
17:57:14.970224 371.71 1360 3796 14120 577 192 -83
17:57:14.982339 371.72 1332 3708 14112 399 219 -44
17:57:15.000152 371.73 1364 3740 14132 296 228 -47
17:57:15.012354 371.74 1348 3796 13980 213 252 -29
17:57:15.012482 371.75 1324 3740 13784 108 296 -44
17:57:15.012567 371.76 1404 3824 13932 84 254 -15
17:57:15.029872 371.77 1268 3828 13968 45 235 -28
17:57:15.042162 371.78 1284 3784 13832 27 297 -48
17:57:15.043023 371.79 1320 3848 13944 -60 264 -25
17:57:15.065021 371.8 1496 3864 13872 -10 282 -50
17:57:15.070886 371.81 1284 3904 13872 22 273 -46
17:57:15.071037 371.82 1232 3828 13940 4 304 -33
17:57:15.088392 371.83 1244 3856 13888 70 289 -21
17:57:15.101953 371.84 1300 3912 14148 172 296 -47
17:57:15.103073 371.85 1336 3912 13964 143 191 -32
17:57:15.125014 371.86 1452 3848 14124 317 526 -76
17:57:15.131679 371.87 1204 3932 13808 -19 451 -35
17:57:15.131817 371.88 1268 3876 13632 -430 291 -13
17:57:15.149183 371.89 1316 3732 13936 71 397 -74
17:57:15.178926 371.9 1344 3820 14104 301 280 -99
17:57:15.190612 371.91 1356 3856 13984 91 254 -55
17:57:15.212916 371.92 1296 3900 13892 -162 266 -27
17:57:15.218989 371.93 1316 3908 13872 -272 207 24
17:57:15.219087 371.94 1256 3944 14032 -242 165 -9
17:57:15.219144 371.95 1380 3848 13844 -257 163 6
17:57:15.220613 371.96 1380 4004 13896 -382 230 -4
17:57:15.286491 371.97 1432 4048 14032 -331 228 -28
17:57:15.296565 371.98 1332 3960 14080 -361 312 -37
17:57:15.296698 371.99 1268 4008 14040 -518 317 -26
17:57:15.296772 372.0 1232 3972 13876 -648 296 -39
17:57:15.296841 372.01 1308 3908 14004 -793 291 -19
17:57:15.296909 372.02 1248 3872 14048 -976 294 -15
17:57:15.296977 372.03 1240 3736 14048 -1101 259 22
17:57:15.302351 372.04 1304 3804 13856 -1339 251 38
17:57:15.327229 372.05 1248 3724 13996 -1577 182 99
17:57:15.331064 372.06 1184 3716 13964 -1536 150 68
17:57:15.342860 372.07 1388 3684 14088 -1640 172 91
17:57:15.362753 372.08 1220 3652 13880 -1798 217 89
17:57:15.362916 372.09 1260 3540 13920 -1837 177 80
17:57:15.390660 372.1 1308 3504 13932 -1910 178 98
17:57:15.397731 372.11 1300 3508 13976 -1989 161 140
17:57:15.397967 372.12 1364 3472 14064 -1950 183 153
17:57:15.466427 372.13 1332 3480 13996 -1931 281 149
17:57:15.467657 372.14 1284 3360 13944 -1970 228 104
17:57:15.468776 372.15 1348 3332 14056 -1995 164 123
17:57:15.470028 372.16 1276 3368 13884 -1976 158 117
17:57:15.472628 372.17 1212 3292 14012 -1917 217 89
17:57:15.474265 372.18 1264 3304 14000 -1836 246 118
17:57:15.550278 372.19 1364 3196 14172 -1796 298 58
17:57:15.569100 372.2 1248 3272 14048 -2052 230 130
17:57:15.569392 372.21 1292 3180 14092 -2093 227 143
17:57:15.569757 372.22 1316 3092 14160 -2061 177 113
17:57:15.570117 372.23 1356 3116 14136 -2051 188 115
17:57:15.570475 372.24 1256 3056 14172 -2032 224 86
17:57:15.630876 372.25 1232 2980 14240 -2076 209 93
17:57:15.631548 372.26 1208 2792 14088 -2223 90 118
17:57:15.632785 372.27 1272 2760 13904 -2191 -19 85
17:57:15.634037 372.28 1392 2748 14008 -1999 -3 106
17:57:15.635149 372.29 1328 2788 14196 -1726 106 34
17:57:15.638285 372.3 1356 2764 14292 -1486 183 12
17:57:15.641037 372.31 1356 2768 14312 -1511 234 6
17:57:15.642017 372.32 1184 2728 14100 -1747 144 26
17:57:15.643711 372.33 1272 2572 13992 -1751 15 46
17:57:15.645853 372.34 1384 2620 14248 -1487 -72 58
17:57:15.668134 372.35 1304 2636 14360 -1709 336 29
17:57:15.668249 372.36 1236 2664 13724 -2482 208 39
17:57:15.668319 372.37 1432 2248 14036 -2250 -8 17
17:57:15.668386 372.38 1520 2320 14704 -1011 240 -80
17:57:15.694325 372.39 1296 2352 14040 -1227 -120 7
17:57:15.703883 372.4 1360 2384 13900 -2132 -291 42
17:57:15.704061 372.41 1472 2112 14320 -1390 154 15
17:57:15.704152 372.42 1368 2288 13752 -1714 -214 35
17:57:15.724813 372.43 1340 2196 13836 -2270 -139 100
17:57:15.738445 372.44 1392 2120 14248 -1534 -29 43
17:57:15.739380 372.45 1504 2244 14680 -811 79 -48
17:57:15.741866 372.46 1388 2488 14708 -1166 190 -76
17:57:15.762261 372.47 1236 2412 14528 -1585 222 -53
17:57:15.768642 372.48 1272 2320 14404 -1836 324 -62
17:57:15.768815 372.49 1260 2300 14236 -2001 223 -24
17:57:15.790430 372.5 1356 2168 14216 -2093 128 -5
17:57:15.807035 372.51 1352 2052 14180 -2127 100 -5
17:57:15.809072 372.52 1292 1912 14080 -2017 59 -47
17:57:15.823090 372.53 1340 1844 14064 -1916 65 -32
17:57:15.834017 372.54 1340 1780 14100 -1748 -39 -24
17:57:15.834888 372.55 1368 1764 14124 -1533 -121 -20
17:57:15.842393 372.56 1552 1792 14392 -1426 -76 -22
17:57:15.857622 372.57 1444 1724 14544 -1231 -38 -64
17:57:15.873417 372.58 1444 1796 14336 -1111 58 -80
17:57:15.894939 372.59 1472 1804 14272 -1274 -1 -75
17:57:15.906978 372.6 1348 1844 14336 -1415 -11 -84
17:57:15.907106 372.61 1508 1676 14368 -1492 32 -80
17:57:15.907172 372.62 1404 1772 14384 -1726 -31 -114
17:57:15.920109 372.63 1416 1604 14244 -1956 -166 -159
17:57:15.943035 372.64 1440 1472 14104 -2020 -190 -146
17:57:15.943241 372.65 1388 1360 14288 -1846 -128 -110
17:57:15.943415 372.66 1372 1324 14196 -1610 -264 -48
17:57:15.958750 372.67 1372 1468 14212 -1638 86 135
17:57:15.967936 372.68 1556 1596 14072 -1630 -174 232
17:57:15.986389 372.69 1796 1772 14568 -1555 -188 -49
17:57:15.996547 372.7 1440 1444 14252 -1462 248 -72
17:57:15.996712 372.71 1308 1380 14528 -1019 -107 -28
17:57:16.016807 372.72 1436 1428 14052 -1564 -138 -23
17:57:16.017906 372.73 1452 1180 13952 -2138 -341 -38
17:57:16.022346 372.74 1516 1016 14364 -1881 -353 -27
17:57:16.038759 372.75 1512 1268 14416 -1394 -366 -62
17:57:16.044816 372.76 1612 1280 14356 -1432 -132 -67
17:57:16.060243 372.77 1552 1200 14324 -1556 -93 -31
17:57:16.084348 372.78 1472 1208 14200 -1713 -178 -63
17:57:16.095342 372.79 1532 1160 14404 -1641 -349 -48
17:57:16.095516 372.8 1688 1128 14412 -1667 -247 -124
17:57:16.097597 372.81 1588 992 14248 -1685 -130 -133
17:57:16.113132 372.82 1640 964 14212 -1739 -209 -120
17:57:16.121359 372.83 1716 896 14356 -1665 -136 -117
17:57:16.137385 372.84 1540 988 14340 -1424 -91 -135
17:57:16.139102 372.85 1636 760 14152 -1517 -148 -107
17:57:16.159843 372.86 1684 736 14128 -1392 -39 -107
17:57:16.167942 372.87 1676 712 14220 -1162 -121 -73
17:57:16.172330 372.88 1692 804 14176 -987 -47 -36
17:57:16.180318 372.89 1596 756 14184 -770 -126 -30
17:57:16.197543 372.9 1616 736 14188 -538 -65 -44
17:57:16.209124 372.91 1652 624 14136 -451 -52 3
17:57:16.230574 372.92 1600 684 14100 -375 -63 3
17:57:16.242552 372.93 1712 720 14196 -205 -40 -6
17:57:16.242808 372.94 1680 732 14116 -98 3 -5
17:57:16.243920 372.95 1676 628 14064 22 149 21
17:57:16.258960 372.96 1652 772 14024 187 173 34
17:57:16.280061 372.97 1684 708 14096 472 301 40
17:57:16.281666 372.98 1664 768 14032 875 390 20
17:57:16.299884 372.99 1652 816 14000 1144 486 8
17:57:16.311644 373.0 1520 832 14032 1318 481 35
17:57:16.327088 373.01 1632 732 13932 1461 412 53
17:57:16.336429 373.02 1580 868 14192 1647 510 33
17:57:16.338908 373.03 1604 1064 14320 1874 521 5
17:57:16.354898 373.04 1588 1100 14412 1789 541 -5
17:57:16.356989 373.05 1568 1052 14360 1651 638 4
17:57:16.360164 373.06 1528 1228 14256 1476 560 9
17:57:16.379073 373.07 1496 1144 14336 1407 584 -11
17:57:16.386443 373.08 1412 1252 14328 1335 598 -38
17:57:16.390159 373.09 1536 1240 14244 1260 528 -41
17:57:16.398302 373.1 1548 1228 14192 1277 536 -14
17:57:16.443075 373.11 1540 1284 14176 1253 412 -20
17:57:16.453419 373.12 1632 1228 14012 1158 305 2
17:57:16.453710 373.13 1588 1264 14056 1222 310 15
17:57:16.454007 373.14 1560 1372 14272 1577 425 26
17:57:16.459141 373.15 1644 1396 14452 2070 507 -47
17:57:16.475996 373.16 1564 1512 14248 2165 489 -48
17:57:16.487620 373.17 1404 1552 14300 2126 670 -62
17:57:16.496088 373.18 1500 1500 14252 2048 582 -17
17:57:16.512417 373.19 1464 1600 14312 1957 470 -10
17:57:16.519217 373.2 1584 1688 14572 1616 517 16
17:57:16.546244 373.21 1388 2008 14092 811 706 -8
17:57:16.555467 373.22 1568 1660 13880 222 226 66
17:57:16.555583 373.23 1728 1556 14572 1238 469 -56
17:57:16.557336 373.24 1584 1844 14752 2386 389 -86
17:57:16.560211 373.25 1472 1992 13828 730 -15 57
17:57:16.612904 373.26 1528 1692 14440 991 517 -3
17:57:16.620408 373.27 1376 1828 14068 1202 294 53
17:57:16.620569 373.28 1476 1852 13628 298 -32 143
17:57:16.620675 373.29 1472 1656 13892 626 186 131
17:57:16.620841 373.3 1572 1820 14520 1816 208 34
17:57:16.630835 373.31 1504 2048 14716 2135 387 -88
17:57:16.654456 373.32 1424 2272 14484 1692 492 -30
17:57:16.675455 373.33 1312 2136 14464 1374 603 -40
17:57:16.712764 373.34 1388 2176 14500 1344 575 -36
17:57:16.720482 373.35 1368 2340 14460 1203 561 19
17:57:16.720640 373.36 1420 2304 14376 1022 588 -38
17:57:16.720816 373.37 1448 2236 14136 807 506 -26
17:57:16.720995 373.38 1420 2132 13964 729 443 -21
17:57:16.721172 373.39 1460 2200 13900 1011 237 -5
17:57:16.721348 373.4 1488 2140 14216 1273 153 -31
17:57:16.727462 373.41 1532 2160 14156 1471 185 -14
17:57:16.756064 373.42 1392 2256 14220 1554 227 -44
17:57:16.761972 373.43 1448 2292 14304 1620 309 -45
17:57:16.762088 373.44 1300 2352 14236 1534 362 -60
17:57:16.780258 373.45 1424 2424 14168 1487 355 -64
17:57:16.791837 373.46 1460 2460 14160 1415 352 -63
17:57:16.796966 373.47 1476 2492 14272 1338 332 -75
17:57:16.810565 373.48 1492 2456 14184 1315 314 -57
17:57:16.847086 373.49 1528 2472 14264 1163 335 -91
17:57:16.858476 373.5 1528 2516 14044 1129 332 -75
17:57:16.895649 373.51 1324 2652 14244 1268 284 -87
17:57:16.898540 373.52 1332 2664 14168 1309 291 -56
17:57:16.919902 373.53 1324 2660 14224 1452 349 -111
17:57:16.930717 373.54 1376 2872 14256 1478 315 -105
17:57:16.931203 373.55 1344 2788 14392 1462 564 -146
17:57:16.932032 373.56 1332 2956 14056 1268 420 -17
17:57:16.932454 373.57 1312 2908 13804 657 322 -20
17:57:16.946311 373.58 1360 2744 13932 681 227 -41
17:57:16.956311 373.59 1348 2824 14296 1359 130 -84
17:57:16.956444 373.6 1476 2940 14192 1469 159 -84
17:57:16.956705 373.61 1448 3032 14048 1083 250 -93
17:57:16.957090 373.62 1436 2992 14136 1030 268 -69
17:57:16.977716 373.63 1424 3024 14080 1054 145 -74
17:57:16.990975 373.64 1380 3056 14048 1031 144 -70
17:57:16.995516 373.65 1396 3044 14080 955 204 -16
17:57:17.015227 373.66 1236 3052 13944 1042 207 -73
17:57:17.015459 373.67 1368 3100 14100 1142 305 -125
17:57:17.015652 373.68 1384 3144 14132 1147 310 -81
17:57:17.029683 373.69 1420 3180 14308 967 345 -102
17:57:17.033836 373.7 1500 3124 14008 842 345 -63
17:57:17.056295 373.71 1364 3132 14052 770 337 -88
17:57:17.060856 373.72 1348 3268 13944 815 305 -58
17:57:17.061051 373.73 1388 3200 13944 690 271 -56
17:57:17.093047 373.74 1340 3156 14032 690 256 -51
17:57:17.095732 373.75 1336 3232 14152 781 207 -68
17:57:17.117966 373.76 1316 3272 14016 836 257 -77
17:57:17.126881 373.77 1300 3276 13964 904 234 -80
17:57:17.127181 373.78 1348 3268 14080 841 288 -102
17:57:17.127456 373.79 1424 3348 14008 811 264 -76
17:57:17.127725 373.8 1372 3408 13944 738 234 -37
17:57:17.149703 373.81 1340 3416 14068 665 283 -53
17:57:17.160379 373.82 1400 3452 14032 712 265 -59
17:57:17.179993 373.83 1336 3472 14052 710 340 -59
17:57:17.193170 373.84 1476 3472 13976 696 268 -52
17:57:17.215374 373.85 1228 3504 13924 711 294 -56
17:57:17.223576 373.86 1180 3428 13968 703 277 -75
17:57:17.223756 373.87 1348 3544 13992 772 335 -55
17:57:17.223880 373.88 1304 3544 14056 704 291 -66
17:57:17.232819 373.89 1336 3644 13968 591 238 -68
17:57:17.235308 373.9 1272 3584 13888 559 250 -71
17:57:17.257982 373.91 1432 3548 14160 563 259 -41
17:57:17.276382 373.92 1392 3628 13800 562 265 -80
17:57:17.292436 373.93 1188 3612 13852 620 247 -87
17:57:17.292677 373.94 1392 3672 13808 559 323 -103
17:57:17.292890 373.95 1396 3624 13964 483 333 -108
17:57:17.310508 373.96 1396 3708 13908 475 265 -64
17:57:17.325571 373.97 1292 3680 13836 413 330 -72
17:57:17.329442 373.98 1216 3668 14056 400 267 -53
17:57:17.331165 373.99 1376 3696 14084 395 288 -61
17:57:17.350467 374.0 1260 3624 14068 343 281 -72
17:57:17.359003 374.01 1412 3668 14044 333 270 -70
17:57:17.359172 374.02 1300 3732 13892 243 246 -50
17:57:17.364844 374.03 1236 3680 13948 176 293 -45
17:57:17.410809 374.04 1224 3668 13896 125 222 -34
17:57:17.427779 374.05 1300 3732 13976 99 220 -15
17:57:17.427966 374.06 1268 3740 13968 21 278 -38
17:57:17.430559 374.07 1364 3748 13888 15 257 -35
17:57:17.431569 374.08 1256 3792 14080 -60 237 -48
17:57:17.432798 374.09 1192 3840 13932 -98 286 -39
17:57:17.449845 374.1 1228 3804 14116 -220 317 -40
17:57:17.459116 374.11 1304 3792 13964 -285 305 -56
17:57:17.462713 374.12 1304 3764 14040 -389 257 -24
17:57:17.488662 374.13 1320 3772 13996 -539 261 -19
17:57:17.493760 374.14 1288 3776 13904 -602 261 -15
17:57:17.502067 374.15 1412 3796 14036 -770 249 23
17:57:17.503737 374.16 1256 3796 14112 -961 273 20
17:57:17.522975 374.17 1304 3760 14044 -1108 270 74
17:57:17.553048 374.18 1184 3744 14040 -1258 225 58
17:57:17.560508 374.19 1320 3712 14028 -1461 200 67
17:57:17.560610 374.2 1220 3684 13936 -1631 126 45
17:57:17.560679 374.21 1256 3532 13976 -1749 46 106
17:57:17.560744 374.22 1360 3476 13828 -1774 74 81
17:57:17.584773 374.23 1372 3432 14088 -1576 230 73
17:57:17.593171 374.24 1380 3508 14080 -1439 237 91
17:57:17.624196 374.25 1316 3440 14096 -1392 228 45
17:57:17.630148 374.26 1256 3412 13900 -1510 233 46
17:57:17.703859 374.27 1212 3292 13936 -1641 111 80
17:57:17.733402 374.28 1344 3264 13844 -1489 21 102
17:57:17.780225 374.29 1208 3340 14228 -1422 112 117
17:57:17.792317 374.3 1096 3448 13708 -2207 381 177
17:57:17.792495 374.31 1352 3168 13720 -2540 1 171
17:57:17.792633 374.32 1552 3120 14660 -1132 342 17
17:57:17.792765 374.33 1264 3252 13972 -970 64 89
17:57:17.792897 374.34 1348 3084 13860 -2107 -275 183
17:57:17.820643 374.35 1416 3032 14232 -1642 151 172
17:57:17.831343 374.36 1204 3032 13660 -1980 -105 234
17:57:17.831532 374.37 1208 2788 13640 -2090 -213 285
17:57:17.831640 374.38 1344 3164 14460 -960 29 50
17:57:17.831744 374.39 1356 3032 14236 -1527 262 66
17:57:17.831846 374.4 1344 2976 14176 -1704 292 97
17:57:17.885459 374.41 1384 2784 14116 -1824 343 99
17:57:17.893033 374.42 1380 2740 13832 -1957 255 111
17:57:17.932387 374.43 1320 2708 13784 -1764 29 135
17:57:17.933585 374.44 1396 2640 13936 -1284 -7 100
17:57:17.934708 374.45 1404 2584 14232 -1013 55 46
17:57:17.936443 374.46 1392 2572 14212 -1003 54 67
17:57:17.937518 374.47 1400 2584 14216 -1089 151 42
17:57:17.950744 374.48 1368 2536 14240 -1226 185 69
17:57:17.994449 374.49 1340 2560 14256 -1361 191 44
17:57:17.995511 374.5 1392 2624 14328 -1409 125 90
17:57:17.996639 374.51 1420 2452 14216 -1520 63 107
17:57:17.997879 374.52 1432 2436 14076 -1514 79 73
17:57:18.005168 374.53 1432 2352 14212 -1573 127 57
17:57:18.016044 374.54 1232 2400 14184 -1588 100 -3
17:57:18.027793 374.55 1368 2308 14272 -1490 110 42
17:57:18.027959 374.56 1460 2360 14224 -1313 206 12
17:57:18.028083 374.57 1360 2420 14268 -1287 160 24
17:57:18.028205 374.58 1436 2416 13988 -1352 107 12
17:57:18.028324 374.59 1444 2304 14256 -1205 211 2
17:57:18.028445 374.6 1264 2240 14140 -1208 152 34
17:57:18.048797 374.61 1404 2216 14044 -1591 86 66
17:57:18.063207 374.62 1312 2052 14136 -1575 -47 4
17:57:18.063402 374.63 1384 2116 14392 -925 -37 -26
17:57:18.063556 374.64 1508 2248 14396 -992 -11 -26
17:57:18.063701 374.65 1532 2272 14188 -1367 64 -38
17:57:18.083839 374.66 1416 2024 14220 -1487 21 6
17:57:18.097016 374.67 1396 2084 14140 -1395 -40 -15
17:57:18.121627 374.68 1552 2028 14328 -1488 -35 -13
17:57:18.130722 374.69 1448 2092 14332 -1561 43 -53
17:57:18.130934 374.7 1444 2084 14364 -1587 112 -61
17:57:18.131084 374.71 1328 2088 14212 -1688 47 -89
17:57:18.168022 374.72 1504 1896 14228 -1641 -31 -56
17:57:18.169100 374.73 1408 1780 14180 -1647 18 -73
17:57:18.170711 374.74 1472 1812 14244 -1599 -9 -39
17:57:18.173607 374.75 1508 1720 14248 -1652 -58 -52
17:57:18.196036 374.76 1580 1548 14288 -1420 -56 -42
17:57:18.196434 374.77 1440 1684 14132 -1246 -29 -60
17:57:18.197361 374.78 1372 1712 14200 -1223 -27 -40
17:57:18.204872 374.79 1464 1624 14224 -1075 -57 -37
17:57:18.222170 374.8 1452 1564 14356 -825 9 -43
17:57:18.233903 374.81 1504 1624 14416 -840 -3 -48
17:57:18.235227 374.82 1556 1552 14384 -908 26 -28
17:57:18.249954 374.83 1348 1576 14296 -1050 55 -24
17:57:18.265095 374.84 1440 1612 14428 -1158 78 -30
17:57:18.285674 374.85 1492 1684 14232 -1329 68 -62
17:57:18.296097 374.86 1516 1628 14212 -1447 31 -54
17:57:18.296284 374.87 1424 1616 14228 -1508 -7 -51
17:57:18.296443 374.88 1344 1512 14212 -1320 -83 -30
17:57:18.302222 374.89 1492 1504 14348 -1245 -99 -16
17:57:18.322871 374.9 1512 1436 14392 -1158 -60 -37
17:57:18.331395 374.91 1532 1372 14424 -1015 -8 -12
17:57:18.356283 374.92 1552 1316 14404 -939 66 -20
17:57:18.364534 374.93 1476 1404 14256 -902 19 -19
17:57:18.364789 374.94 1572 1284 14204 -865 -24 -3
17:57:18.365126 374.95 1524 1252 14196 -727 25 -23
17:57:18.384874 374.96 1560 1316 14136 -560 52 -30
17:57:18.398646 374.97 1676 1236 14260 -477 42 -22
17:57:18.401992 374.98 1696 1264 14216 -335 69 -12
17:57:18.403597 374.99 1576 1320 14232 -112 161 -2
17:57:18.419375 375.0 1528 1340 14168 -51 135 24
17:57:18.431773 375.01 1524 1400 14144 37 141 0
17:57:18.437365 375.02 1652 1264 14288 197 163 -2
17:57:18.455245 375.03 1580 1280 14124 346 252 -6
17:57:18.463128 375.04 1608 1324 14204 428 321 -28
17:57:18.463298 375.05 1540 1284 14184 477 315 -27
17:57:18.475468 375.06 1536 1300 14000 504 272 -12
17:57:18.496547 375.07 1440 1384 14328 705 352 -26
17:57:18.497394 375.08 1408 1372 14216 791 371 -33
17:57:18.522192 375.09 1448 1368 14168 878 364 -22
17:57:18.536072 375.1 1392 1396 14352 948 389 -42
17:57:18.536902 375.11 1480 1508 14348 848 361 -24
17:57:18.539554 375.12 1452 1564 14288 839 322 -20
17:57:18.560105 375.13 1516 1560 14236 832 309 -8
17:57:18.568519 375.14 1588 1592 14284 813 335 -6
17:57:18.572396 375.15 1548 1568 14256 794 339 -20
17:57:18.588365 375.16 1468 1616 14224 859 394 -7
17:57:18.596644 375.17 1580 1612 14388 848 400 -8
17:57:18.620449 375.18 1448 1644 14256 854 398 -11
17:57:18.630577 375.19 1584 1720 14444 848 395 -2
17:57:18.630749 375.2 1536 1676 14128 825 321 7
17:57:18.632811 375.21 1528 1616 14012 782 202 -15
17:57:18.657557 375.22 1440 1624 14212 935 244 22
17:57:18.667660 375.23 1608 1736 14304 1345 417 -19
17:57:18.671920 375.24 1624 1904 14428 1596 537 -72
17:57:18.673780 375.25 1524 1796 14384 1484 548 -70
17:57:18.695277 375.26 1384 1960 14256 1291 439 -63
17:57:18.701983 375.27 1436 1904 14248 1094 317 5
17:57:18.707757 375.28 1468 1964 14220 1117 167 -16
17:57:18.718082 375.29 1500 2040 14576 1105 378 15
17:57:18.730727 375.3 1336 2208 13924 291 580 2
17:57:18.737389 375.31 1600 1828 14016 -46 124 59
17:57:18.752555 375.32 1580 1784 14952 1643 549 -90
17:57:18.790884 375.33 1348 2224 14104 1932 177 -88
17:57:18.802086 375.34 1468 2068 14120 805 59 11
17:57:18.802264 375.35 1436 1976 14208 1347 624 -79
17:57:18.802401 375.36 1372 2124 13736 740 40 69
17:57:18.802534 375.37 1460 1964 13684 437 181 98
17:57:18.824625 375.38 1560 1876 14448 1559 388 -63
17:57:18.834167 375.39 1420 2420 14776 1983 353 -112
17:57:18.836843 375.4 1496 2444 14380 1509 438 -92
17:57:18.838771 375.41 1420 2552 14220 1025 426 -52
17:57:18.854892 375.42 1332 2552 14164 945 469 -8
17:57:18.874593 375.43 1336 2428 14296 833 455 37
17:57:18.875571 375.44 1404 2380 14112 734 397 10
17:57:18.889422 375.45 1380 2280 14124 668 432 -13
17:57:18.901735 375.46 1340 2276 13968 599 444 -20
17:57:18.922053 375.47 1452 2344 13888 652 357 -33
17:57:18.932823 375.48 1408 2328 13880 898 292 -37
17:57:18.934463 375.49 1440 2280 14052 1219 222 -58
17:57:18.936153 375.5 1544 2544 14284 1403 237 -52
17:57:18.959525 375.51 1520 2536 14240 1329 295 -77
17:57:18.970252 375.52 1404 2552 14404 1258 395 -87
17:57:18.992704 375.53 1336 2628 14176 1098 422 -102
17:57:19.002280 375.54 1336 2620 14180 944 334 -52
17:57:19.002733 375.55 1384 2568 14112 859 316 -58
17:57:19.003076 375.56 1384 2636 14184 821 291 -48
17:57:19.007221 375.57 1460 2672 14088 710 278 -39
17:57:19.034399 375.58 1376 2744 14052 572 224 -66
17:57:19.037258 375.59 1384 2756 14016 677 224 -12
17:57:19.076839 375.6 1544 2684 14132 709 221 -46
17:57:19.078748 375.61 1308 2664 14116 873 259 -42
17:57:19.099072 375.62 1404 2864 14136 1093 318 -95
17:57:19.099262 375.63 1480 2896 14140 1190 333 -112
17:57:19.099395 375.64 1248 2868 14268 1330 574 -104
17:57:19.099519 375.65 1300 2904 14224 1242 628 -107
17:57:19.099686 375.66 1176 2924 14016 719 308 -53
17:57:19.105700 375.67 1352 2852 13888 608 343 -56
17:57:19.130019 375.68 1296 2832 14032 797 193 -97
17:57:19.132944 375.69 1384 2924 14320 1066 209 -107
17:57:19.134941 375.7 1452 2992 14148 1045 189 -94
17:57:19.198181 375.71 1400 3060 14060 788 211 -64
17:57:19.204035 375.72 1260 3004 14032 760 235 -92
17:57:19.204230 375.73 1388 3096 14056 742 128 -44
17:57:19.204456 375.74 1428 3128 14124 671 198 -79
17:57:19.204684 375.75 1464 3176 14048 679 223 -56
17:57:19.212235 375.76 1400 3060 14124 775 263 -48
17:57:19.235912 375.77 1412 3140 14224 845 271 -97
17:57:19.236174 375.78 1384 3064 14264 780 252 -109
17:57:19.236394 375.79 1364 3028 13908 706 292 -83
17:57:19.264001 375.8 1448 2996 14032 670 269 -74
17:57:19.276486 375.81 1320 3132 14076 758 284 -78
17:57:19.277834 375.82 1324 3172 14108 714 279 -57
17:57:19.280427 375.83 1408 3200 13904 635 296 -74
17:57:19.313534 375.84 1352 3088 13780 681 354 -50
17:57:19.340276 375.85 1372 3204 14192 809 348 -88
17:57:19.340385 375.86 1232 3216 13968 808 319 -103
17:57:19.354497 375.87 1240 3292 14100 764 277 -75
17:57:19.378698 375.88 1316 3288 13996 646 260 -77
17:57:19.379105 375.89 1436 3332 14004 631 236 -53
17:57:19.379349 375.9 1296 3324 14052 662 252 -39
17:57:19.379594 375.91 1316 3436 13900 617 271 -55
17:57:19.379969 375.92 1364 3460 14000 636 302 -61
17:57:19.395926 375.93 1280 3372 13936 661 233 -84
17:57:19.404193 375.94 1292 3464 13904 684 307 -85
17:57:19.407549 375.95 1324 3504 14072 724 307 -78
17:57:19.409447 375.96 1284 3592 14064 789 246 -30
17:57:19.413197 375.97 1336 3532 13912 649 300 -84
17:57:19.438279 375.98 1280 3452 14040 711 295 -83
17:57:19.466146 375.99 1236 3556 14052 658 257 -73
17:57:19.508321 376.0 1332 3576 13980 675 232 -17
17:57:19.519805 376.01 1320 3608 14036 673 244 35
17:57:19.519919 376.02 1280 3564 14056 697 329 -5
17:57:19.519996 376.03 1376 3540 13900 507 337 -46
17:57:19.520071 376.04 1272 3548 13988 587 288 -136
17:57:19.520309 376.05 1280 3656 13936 694 310 -163
17:57:19.520611 376.06 1256 3692 14032 755 213 -139
17:57:19.527082 376.07 1280 3660 13940 687 257 -71
17:57:19.550198 376.08 1280 3712 13928 615 259 -104
17:57:19.550358 376.09 1348 3708 13880 580 271 -53
17:57:19.567645 376.1 1352 3652 13932 563 285 -97
17:57:19.622560 376.11 1368 3696 13908 551 332 -102
17:57:19.633563 376.12 1232 3808 13900 523 265 -79
17:57:19.633726 376.13 1216 3760 13920 519 283 -66
17:57:19.633940 376.14 1216 3796 14032 519 235 -60
17:57:19.634310 376.15 1272 3812 14008 451 269 -80
17:57:19.634565 376.16 1260 3832 13888 476 259 -101
17:57:19.634951 376.17 1220 3840 13980 451 236 -71
17:57:19.654261 376.18 1288 3884 13944 392 246 -79
17:57:19.665306 376.19 1336 3812 13896 395 254 -72
17:57:19.665450 376.2 1332 3924 14008 416 268 -73
17:57:19.665526 376.21 1284 3864 14060 470 279 -64
17:57:19.667501 376.22 1308 3968 13964 511 325 -74
17:57:19.683087 376.23 1256 3896 13996 470 303 -102
17:57:19.694208 376.24 1296 4032 13832 361 309 -86
17:57:19.707737 376.25 1204 4016 13760 300 261 -51
17:57:19.722719 376.26 1324 3920 13744 121 244 -59
17:57:19.722831 376.27 1288 3996 13944 202 202 -50
17:57:19.727284 376.28 1240 3968 14024 367 308 -86
17:57:19.750083 376.29 1348 3932 14072 452 345 -113
17:57:19.762679 376.3 1300 3996 14120 326 380 -81
17:57:19.765520 376.31 1180 3976 13896 140 361 -92
17:57:19.781912 376.32 1244 3904 13736 20 222 -71
17:57:19.783032 376.33 1304 3940 14152 57 176 -43
17:57:19.805266 376.34 1168 3988 14096 -79 169 -17
17:57:19.807542 376.35 1208 3968 13400 -855 341 83
17:57:19.809750 376.36 1348 3836 13804 -707 76 83
17:57:19.825160 376.37 1580 3936 14432 513 544 -113
17:57:19.842048 376.38 1172 4308 14080 231 193 -116
17:57:19.844151 376.39 1200 4200 13980 -422 116 -23
17:57:19.863117 376.4 1204 4032 13712 -279 293 -12
17:57:19.936243 376.41 1088 4004 13412 -898 43 107
17:57:19.937288 376.42 1368 3628 13556 -924 -53 141
17:57:19.938642 376.43 1372 3776 13876 -217 -39 78
17:57:19.939815 376.44 1280 3916 14224 -91 -50 17
17:57:19.943532 376.45 1200 3964 14152 -256 -29 -2
17:57:19.959202 376.46 1116 4100 14020 -504 37 28
17:57:19.972397 376.47 1204 4016 14028 -580 81 49
17:57:19.972645 376.48 1244 4036 13936 -469 84 40
17:57:19.972878 376.49 1428 3988 13928 -376 177 15
17:57:19.973052 376.5 1352 3988 13828 -349 291 11
17:57:19.975167 376.51 1200 3964 13864 -499 305 -19
17:57:19.984713 376.52 1216 3888 13748 -525 304 -5
17:57:20.005139 376.53 1264 3864 13996 -476 231 -11
17:57:20.005349 376.54 1388 3868 13976 -465 110 9
17:57:20.026973 376.55 1340 3904 13924 -520 141 39
17:57:20.038308 376.56 1316 3804 14124 -648 172 36
17:57:20.044571 376.57 1368 3848 14008 -828 174 25
17:57:20.046223 376.58 1284 3852 13984 -952 167 58
17:57:20.062432 376.59 1216 3728 13924 -928 222 84
17:57:20.071148 376.6 1244 3900 13968 -1005 234 78
17:57:20.071451 376.61 1368 3740 13924 -1206 153 74
17:57:20.079888 376.62 1248 3696 13960 -1263 126 97
17:57:20.103738 376.63 1304 3748 13988 -1208 168 100
17:57:20.150452 376.64 1348 3680 13972 -1201 161 89
17:57:20.152515 376.65 1348 3548 13944 -1164 154 62
17:57:20.175080 376.66 1320 3544 13932 -1032 114 75
17:57:20.175273 376.67 1260 3660 13996 -985 189 74
17:57:20.175417 376.68 1276 3652 14032 -978 200 46
17:57:20.175551 376.69 1312 3696 13952 -1002 189 19
17:57:20.175685 376.7 1332 3580 14244 -841 363 -16
17:57:20.177153 376.71 1208 3664 13884 -992 335 41
17:57:20.205975 376.72 1236 3512 13676 -1543 188 124
17:57:20.206930 376.73 1248 3376 13856 -1309 156 71
17:57:20.207821 376.74 1300 3396 14028 -670 162 12
17:57:20.230719 376.75 1216 3556 14032 -774 85 17
17:57:20.245745 376.76 1360 3484 13880 -1072 136 85
17:57:20.265648 376.77 1284 3520 14044 -1140 120 106
17:57:20.272305 376.78 1384 3528 14088 -1128 71 100
17:57:20.272567 376.79 1372 3444 13952 -1209 63 113
17:57:20.276714 376.8 1252 3352 13996 -1201 156 71
17:57:20.277938 376.81 1340 3388 14096 -1142 117 67
17:57:20.282581 376.82 1388 3384 13888 -1125 167 48
17:57:20.297736 376.83 1396 3308 13952 -1278 243 48
17:57:20.327608 376.84 1292 3208 14068 -1341 208 65
17:57:20.340974 376.85 1284 3192 14180 -1355 133 52
17:57:20.341111 376.86 1344 3220 14024 -1295 169 96
17:57:20.342304 376.87 1272 3160 14080 -1267 182 90
17:57:20.361768 376.88 1288 3108 13940 -1434 152 66
17:57:20.373063 376.89 1312 3096 14032 -1417 137 80
17:57:20.382115 376.9 1248 3116 14052 -1268 120 98
17:57:20.383371 376.91 1372 3092 14160 -1294 154 60
17:57:20.400208 376.92 1320 3104 14088 -1370 183 49
17:57:20.432277 376.93 1304 3140 13916 -1580 174 96
17:57:20.440248 376.94 1400 3036 14076 -1738 150 123
17:57:20.495747 376.95 1404 2872 14080 -1728 143 127
17:57:20.507160 376.96 1328 2996 14100 -1625 144 114
17:57:20.507402 376.97 1356 2860 14060 -1659 66 114
17:57:20.507628 376.98 1348 2912 14132 -1558 60 131
17:57:20.507872 376.99 1300 2788 14144 -1522 130 97
17:57:20.508127 377.0 1256 2768 14208 -1526 136 98
17:57:20.508422 377.01 1380 2724 14220 -1520 124 98
17:57:20.508630 377.02 1380 2696 14016 -1590 79 89
17:57:20.514661 377.03 1340 2680 14120 -1658 47 82
17:57:20.522562 377.04 1356 2652 14060 -1655 38 94
17:57:20.541021 377.05 1244 2684 14316 -1528 21 47
17:57:20.566278 377.06 1316 2648 14292 -1543 93 32
17:57:20.573996 377.07 1428 2548 14088 -1633 156 18
17:57:20.574139 377.08 1300 2468 14160 -1656 72 38
17:57:20.574764 377.09 1268 2472 14228 -1664 39 62
17:57:20.582165 377.1 1456 2420 14120 -1630 46 45
17:57:20.597324 377.11 1388 2496 14124 -1628 39 8
17:57:20.613355 377.12 1368 2376 14352 -1657 58 28
17:57:20.631292 377.13 1376 2384 14280 -1701 89 9
17:57:20.641741 377.14 1388 2340 14176 -1648 86 -18
17:57:20.641984 377.15 1352 2356 14292 -1666 181 -44
17:57:20.651302 377.16 1328 2204 14292 -1728 56 -27
17:57:20.665076 377.17 1380 2192 14264 -1709 39 -10
17:57:20.675453 377.18 1356 2204 14032 -1843 -16 -5
17:57:20.676562 377.19 1480 2164 14116 -1942 -71 32
17:57:20.698832 377.2 1476 1964 14072 -1947 -127 3
17:57:20.708728 377.21 1408 1984 14220 -1707 -66 -2
17:57:20.720827 377.22 1388 2020 14336 -1456 63 -44
17:57:20.721464 377.23 1452 2096 14248 -1333 -25 -28
17:57:20.741799 377.24 1432 1948 14376 -1378 -53 6
17:57:20.764204 377.25 1444 1896 14008 -1482 -66 15
17:57:20.779045 377.26 1416 1872 14172 -1381 -170 0
17:57:20.779212 377.27 1508 1808 14488 -1277 -38 20
17:57:20.779478 377.28 1464 2036 14176 -1734 268 -38
17:57:20.781716 377.29 1420 1964 13696 -2621 -7 -23
17:57:20.794518 377.3 1496 1604 14276 -2403 -184 31
17:57:20.821012 377.31 1776 1640 14688 -863 55 -104
17:57:20.844754 377.32 1436 1896 14004 -1421 -433 -95
17:57:20.844949 377.33 1632 1684 14092 -2043 -341 -23
17:57:20.845067 377.34 1452 1500 14128 -1488 -85 -72
17:57:20.845174 377.35 1428 1652 13824 -2181 -415 21
17:57:20.852684 377.36 1636 1500 14092 -2148 -215 59
17:57:20.904288 377.37 1632 1520 14736 -1257 113 -40
17:57:20.908822 377.38 1632 1596 14908 -949 204 -112
17:57:20.908993 377.39 1560 1680 14668 -1264 228 -184
17:57:20.915349 377.4 1368 1676 14208 -1815 130 -131
17:57:20.918192 377.41 1436 1480 14368 -2026 -52 -58
17:57:20.941566 377.42 1504 1340 14356 -2069 -282 -39
17:57:20.947908 377.43 1496 1348 14148 -1932 -224 -3
17:57:20.947999 377.44 1620 1276 14168 -1869 -239 -8
17:57:20.949713 377.45 1588 1064 14076 -1585 -166 -6
17:57:20.975475 377.46 1608 1072 13972 -1103 -116 2
17:57:20.981761 377.47 1644 1116 14152 -814 -197 4
17:57:21.000389 377.48 1648 1128 14416 -580 -159 1
17:57:21.011791 377.49 1604 1080 14320 -507 -133 -28
17:57:21.011985 377.5 1568 1180 14344 -595 -67 -23
17:57:21.012144 377.51 1684 1180 14328 -716 -52 -40
17:57:21.017294 377.52 1776 1064 14424 -765 21 -19
17:57:21.034721 377.53 1752 1204 14180 -800 -29 -23
17:57:21.075283 377.54 1660 1140 14196 -906 1 -48
17:57:21.086824 377.55 1632 1108 14248 -996 33 -55
17:57:21.087008 377.56 1648 1084 14284 -1029 -32 -23
17:57:21.087178 377.57 1524 1100 14356 -1059 -92 -13
17:57:21.087289 377.58 1660 1084 14068 -1000 -54 -27
17:57:21.092494 377.59 1660 964 14448 -918 -44 -20
17:57:21.127071 377.6 1540 960 14184 -694 7 -42
17:57:21.135813 377.61 1604 1088 14396 -508 41 -47
17:57:21.136323 377.62 1740 1016 14376 -561 9 -33
17:57:21.136799 377.63 1640 1016 14324 -340 77 17
17:57:21.137535 377.64 1660 1060 13852 -569 -197 65
17:57:21.152523 377.65 1736 864 14048 -765 -145 115
17:57:21.174095 377.66 1812 748 14392 -225 -60 42
17:57:21.185443 377.67 1756 904 14292 -38 -59 50
17:57:21.185750 377.68 1820 840 14212 65 120 -13
17:57:21.189671 377.69 1788 944 14044 221 96 44
17:57:21.205854 377.7 1520 1032 14048 384 76 70
17:57:21.215393 377.71 1824 944 14056 579 178 12
17:57:21.236870 377.72 1804 940 14196 833 307 6
17:57:21.237843 377.73 1624 912 14276 1004 523 -29
17:57:21.251750 377.74 1636 976 14360 1088 672 -43
17:57:21.261219 377.75 1608 1064 14468 1078 730 -88
17:57:21.288128 377.76 1632 1160 14440 1023 670 -86
17:57:21.296519 377.77 1632 1112 14280 936 576 -78
17:57:21.296682 377.78 1672 1212 14304 988 523 -82
17:57:21.296817 377.79 1672 1172 14320 919 546 -76
17:57:21.355191 377.8 1672 1164 14296 943 411 -56
17:57:21.362444 377.81 1604 1272 14336 897 390 -21
17:57:21.362550 377.82 1560 1224 14024 851 422 -10
17:57:21.362624 377.83 1592 1232 14300 991 376 -7
17:57:21.362697 377.84 1656 1240 14220 1048 375 25
17:57:21.362769 377.85 1584 1296 14368 1104 413 -21
17:57:21.372039 377.86 1600 1352 14256 1017 412 26
17:57:21.373988 377.87 1544 1332 14368 907 423 23
17:57:21.396019 377.88 1668 1380 14300 864 413 7
17:57:21.396375 377.89 1660 1480 14300 848 384 43
17:57:21.419640 377.9 1564 1388 14148 904 428 3
17:57:21.435584 377.91 1700 1388 14360 1025 428 -35
17:57:21.436737 377.92 1720 1524 14276 1041 469 -25
17:57:21.438000 377.93 1648 1520 14232 924 473 -14
17:57:21.456018 377.94 1516 1592 14168 829 442 -15
17:57:21.465241 377.95 1564 1584 14332 826 430 -18
17:57:21.495558 377.96 1596 1664 14352 761 395 -29
17:57:21.496754 377.97 1576 1624 14340 715 400 -33
17:57:21.497826 377.98 1436 1532 14308 747 320 -29
17:57:21.507479 377.99 1520 1668 14292 772 334 -28
17:57:21.510327 378.0 1520 1708 14296 791 403 -7
17:57:21.529808 378.01 1608 1624 14188 814 379 7
17:57:21.531667 378.02 1468 1680 14256 805 329 -7
17:57:21.551826 378.03 1552 1708 14140 846 359 -38
17:57:21.563629 378.04 1604 1780 14328 947 374 -25
17:57:21.567085 378.05 1664 1748 14344 936 457 -14
17:57:21.568805 378.06 1484 1788 14364 780 369 -36
17:57:21.589784 378.07 1544 1840 14100 593 271 -28
17:57:21.595738 378.08 1640 1844 14036 552 201 -11
17:57:21.621355 378.09 1668 1800 14400 744 323 -7
17:57:21.631160 378.1 1552 1900 14408 1075 427 -28
17:57:21.631400 378.11 1632 1908 14376 1173 470 -61
17:57:21.632386 378.12 1456 2000 14400 1171 478 -70
17:57:21.650930 378.13 1464 1960 14152 949 395 -12
17:57:21.682251 378.14 1420 1932 14012 919 238 5
17:57:21.703140 378.15 1468 2044 14404 1090 262 -11
17:57:21.703285 378.16 1564 2240 14344 674 567 37
17:57:21.703395 378.17 1424 1984 13568 -232 172 50
17:57:21.716132 378.18 1740 1844 14572 558 412 -25
17:57:21.736140 378.19 1704 2012 14840 2129 508 -186
17:57:21.736451 378.2 1456 2396 13836 659 -90 3
17:57:21.736757 378.21 1596 2080 14224 447 225 -23
17:57:21.753735 378.22 1508 2036 14164 1022 521 -66
17:57:21.763892 378.23 1432 2124 13532 -103 -93 125
17:57:21.769531 378.24 1564 1916 13912 289 231 93
17:57:21.771164 378.25 1636 1980 14388 1316 318 -30
17:57:21.791327 378.26 1492 2388 14728 1748 328 -76
17:57:21.800094 378.27 1440 2432 14524 1343 479 -99
17:57:21.807059 378.28 1408 2476 14360 972 524 -41
17:57:21.808781 378.29 1444 2436 14232 972 459 -22
17:57:21.831181 378.3 1380 2548 14360 819 452 14
17:57:21.853055 378.31 1420 2400 14212 734 395 -11
17:57:21.865963 378.32 1496 2468 14084 790 392 -52
17:57:21.866162 378.33 1348 2424 13884 928 368 -50
17:57:21.866839 378.34 1460 2364 13864 1132 355 -38
17:57:21.867938 378.35 1408 2324 14036 1343 280 -43
17:57:21.889810 378.36 1480 2372 14120 1448 244 -45
17:57:21.899685 378.37 1508 2452 14340 1565 292 -49
17:57:21.902336 378.38 1492 2528 14324 1484 365 -79
17:57:21.930630 378.39 1372 2520 14360 1358 438 -138
17:57:21.931643 378.4 1396 2576 14204 1229 422 -105
17:57:21.932892 378.41 1404 2624 14156 1101 351 -89
17:57:21.964085 378.42 1516 2708 14012 1123 320 -79
17:57:21.995018 378.43 1544 2720 13976 1081 226 -84
17:57:21.999733 378.44 1472 2664 14108 1030 279 -85
17:57:22.000296 378.45 1444 2732 14080 1097 306 -107
17:57:22.001535 378.46 1448 2756 14060 1095 252 -63
17:57:22.002657 378.47 1420 2764 14052 1158 290 -79
17:57:22.005804 378.48 1412 2744 14024 1170 357 -74
17:57:22.009320 378.49 1352 2892 14156 1279 371 -109
17:57:22.031428 378.5 1464 2984 14168 1302 380 -143
17:57:22.054645 378.51 1368 2992 14244 1244 390 -109
17:57:22.062436 378.52 1364 2928 14232 1339 695 -129
17:57:22.062904 378.53 1316 2992 13872 904 352 -70
17:57:22.063292 378.54 1312 2992 13656 454 185 -25
17:57:22.067324 378.55 1532 2920 14008 904 265 -83
17:57:22.113643 378.56 1416 3072 14176 1380 204 -113
17:57:22.114148 378.57 1344 3152 14124 1181 244 -98
17:57:22.115358 378.58 1440 3204 14028 839 269 -64
17:57:22.119047 378.59 1320 2964 14044 809 234 -51
17:57:22.122132 378.6 1348 3260 14112 868 99 -20
17:57:22.141355 378.61 1376 3196 13972 867 127 -50
17:57:22.142506 378.62 1444 3292 14120 751 216 -67
17:57:22.159752 378.63 1392 3272 14196 860 260 -77
17:57:22.164801 378.64 1360 3232 14164 901 230 -95
17:57:22.210325 378.65 1440 3380 14076 831 279 -66
17:57:22.215361 378.66 1380 3236 13816 757 312 -100
17:57:22.215473 378.67 1400 3264 14100 744 287 -54
17:57:22.215545 378.68 1432 3252 14004 812 290 -96
17:57:22.217857 378.69 1408 3324 13964 848 335 -94
17:57:22.224890 378.7 1320 3268 13952 691 281 -60
17:57:22.242151 378.71 1420 3384 13812 655 279 -89
17:57:22.251756 378.72 1288 3268 14072 731 254 -94
17:57:22.255192 378.73 1420 3444 14148 809 324 -93
17:57:22.262409 378.74 1300 3468 13976 723 316 -98
17:57:22.284086 378.75 1424 3484 13936 642 322 -91
17:57:22.284860 378.76 1372 3412 14004 569 258 -47
17:57:22.306637 378.77 1356 3392 13888 538 320 -51
17:57:22.315314 378.78 1268 3476 14028 534 302 -59
17:57:22.324424 378.79 1252 3496 14032 591 236 -52
17:57:22.327383 378.8 1300 3572 14000 552 324 -61
17:57:22.344217 378.81 1344 3520 13996 587 276 -57
17:57:22.363049 378.82 1280 3580 13816 664 261 -64
17:57:22.384974 378.83 1320 3616 14116 624 275 -61
17:57:22.385125 378.84 1324 3740 14072 652 313 -47
17:57:22.385438 378.85 1384 3640 14012 639 293 -63
17:57:22.408249 378.86 1380 3740 13916 548 282 -56
17:57:22.416202 378.87 1364 3704 13952 560 282 -35
17:57:22.421848 378.88 1288 3632 13924 540 279 -49
17:57:22.422979 378.89 1248 3632 13896 648 252 -61
17:57:22.439745 378.9 1236 3676 13928 639 288 -82
17:57:22.450399 378.91 1356 3668 14016 566 252 -96
17:57:22.450559 378.92 1416 3676 14036 591 224 -56
17:57:22.457279 378.93 1400 3832 13936 637 242 -81
17:57:22.482742 378.94 1424 3740 13968 532 277 -46
17:57:22.484944 378.95 1252 3848 13888 544 258 -43
17:57:22.495881 378.96 1288 3796 13808 540 278 -38
17:57:22.516202 378.97 1240 3748 13884 473 255 -81
17:57:22.516299 378.98 1252 3788 13964 505 254 -48
17:57:22.517327 378.99 1368 3872 13916 512 229 -80
17:57:22.541980 379.0 1364 3868 14032 497 240 -95
17:57:22.554707 379.01 1256 3832 13900 467 266 -78
17:57:22.575049 379.02 1228 3876 14004 483 284 -73
17:57:22.583792 379.03 1344 3904 13836 469 273 -68
17:57:22.583977 379.04 1284 3988 13860 340 308 -71
17:57:22.584196 379.05 1236 3916 14032 315 332 -57
17:57:22.621130 379.06 1268 3892 13840 322 276 -67
17:57:22.622183 379.07 1260 3892 14076 306 297 -67
17:57:22.645516 379.08 1256 4012 13896 264 290 -60
17:57:22.652366 379.09 1348 3976 13772 249 256 -54
17:57:22.652543 379.1 1428 3964 13788 302 252 -85
17:57:22.652698 379.11 1336 3920 13896 296 276 -52
17:57:22.661917 379.12 1340 3988 13860 335 309 -66
17:57:22.663769 379.13 1296 4000 13920 174 292 -69
17:57:22.685955 379.14 1324 3936 13700 83 269 -17
17:57:22.706171 379.15 1292 4076 13688 -39 134 -21
17:57:22.727972 379.16 1372 3968 13928 51 222 -34
17:57:22.729238 379.17 1304 4012 14024 242 325 -81
17:57:22.730052 379.18 1268 4108 13964 333 393 -65
17:57:22.744406 379.19 1300 4080 13840 164 370 -107
17:57:22.753350 379.2 1224 4068 13800 -31 337 -68
17:57:22.753497 379.21 1200 3988 13768 -119 259 -61
17:57:22.757356 379.22 1256 3948 14152 -63 160 -19
17:57:22.775121 379.23 1248 4032 13948 -363 222 17
17:57:22.784960 379.24 1016 3980 13312 -1091 156 122
17:57:22.785206 379.25 1408 3744 13984 -575 150 51
17:57:22.794994 379.26 1364 4124 14456 598 568 -129
17:57:22.819276 379.27 1032 4200 14020 -130 48 -58
17:57:22.874907 379.28 1268 3944 13852 -419 149 14
17:57:22.886766 379.29 1204 3964 13672 -514 189 56
17:57:22.886948 379.3 1136 3968 13408 -1166 -67 143
17:57:22.887141 379.31 1252 3716 13664 -718 -60 142
17:57:22.887306 379.32 1356 3928 14144 -157 -123 62
17:57:22.887468 379.33 1392 4012 14252 -173 -108 13
17:57:22.887642 379.34 1244 4048 14096 -428 -16 13
17:57:22.892207 379.35 1216 3936 14060 -629 50 59
17:57:22.921079 379.36 1200 3996 13924 -529 75 52
17:57:22.922072 379.37 1196 3964 14032 -425 97 63
17:57:22.922791 379.38 1316 4036 13884 -393 220 46
17:57:22.943373 379.39 1376 4048 13812 -400 271 -13
17:57:22.953385 379.4 1332 3988 13764 -393 203 15
17:57:22.953525 379.41 1308 3928 13736 -250 139 6
17:57:22.959707 379.42 1364 3924 13860 -157 158 5
17:57:22.980988 379.43 1324 3980 13980 -216 185 23
17:57:23.012113 379.44 1324 4012 13972 -316 190 -2
17:57:23.020189 379.45 1280 3916 13884 -443 209 6
17:57:23.020493 379.46 1276 3904 14064 -556 223 8
17:57:23.020730 379.47 1252 3836 14024 -691 185 14
17:57:23.041009 379.48 1244 3840 14012 -804 177 34
17:57:23.054739 379.49 1292 3824 13940 -906 160 38
17:57:23.063165 379.5 1148 3832 14052 -935 186 78
17:57:23.064141 379.51 1224 3836 13952 -967 182 80
17:57:23.065566 379.52 1404 3696 13824 -1003 132 63
17:57:23.087315 379.53 1328 3812 13832 -997 113 55
17:57:23.097406 379.54 1408 3700 13864 -952 153 69
17:57:23.098260 379.55 1424 3696 13940 -835 195 35
17:57:23.112878 379.56 1392 3724 13924 -826 258 42
17:57:23.144272 379.57 1284 3776 13988 -892 251 23
17:57:23.152694 379.58 1300 3768 14236 -842 295 15
17:57:23.152846 379.59 1256 3736 14024 -899 426 27
17:57:23.156828 379.6 1220 3688 13652 -1722 147 120
17:57:23.158553 379.61 1272 3436 13620 -1640 123 107
17:57:23.179851 379.62 1328 3508 14232 -1012 55 73
17:57:23.192154 379.63 1240 3632 14032 -913 -19 76
17:57:23.192258 379.64 1360 3508 13916 -1156 100 95
17:57:23.209592 379.65 1376 3592 13956 -1270 78 101
17:57:23.223878 379.66 1248 3608 14008 -1213 124 83
17:57:23.224149 379.67 1244 3492 14184 -1185 79 96
17:57:23.230698 379.68 1388 3368 14040 -1272 86 62
17:57:23.254383 379.69 1344 3404 14088 -1237 149 84
17:57:23.281038 379.7 1500 3460 13984 -1229 109 86
17:57:23.288851 379.71 1416 3476 14248 -1127 102 76
17:57:23.289152 379.72 1356 3396 13952 -1210 205 76
17:57:23.291937 379.73 1256 3320 13940 -1380 175 59
17:57:23.293048 379.74 1304 3212 14040 -1382 172 82
17:57:23.297620 379.75 1348 3228 14012 -1281 207 82
17:57:23.316320 379.76 1340 3220 14172 -1352 214 75
17:57:23.327340 379.77 1400 3176 13952 -1489 189 123
17:57:23.357641 379.78 1244 3176 13920 -1537 118 86
17:57:23.362310 379.79 1412 3088 14060 -1341 80 107
17:57:23.362427 379.8 1324 3172 14080 -1256 68 122
17:57:23.378801 379.81 1356 3136 14104 -1208 108 90
17:57:23.390891 379.82 1412 3048 13976 -1226 82 118
17:57:23.396947 379.83 1344 3132 14028 -1296 117 90
17:57:23.398372 379.84 1384 2972 14088 -1287 143 99
17:57:23.412296 379.85 1312 3136 14212 -1303 164 90
17:57:23.446548 379.86 1352 3052 13928 -1249 117 108
17:57:23.454446 379.87 1304 3016 14080 -1242 137 82
17:57:23.454547 379.88 1344 2940 14016 -1227 103 84
17:57:23.454613 379.89 1432 2936 13980 -1194 117 62
17:57:23.480495 379.9 1332 2948 13952 -1126 136 72
17:57:23.498200 379.91 1420 2928 14116 -1208 138 66
17:57:23.499422 379.92 1452 2840 14156 -1269 137 80
17:57:23.500541 379.93 1292 2740 14036 -1287 161 59
17:57:23.514523 379.94 1432 2916 14160 -1206 108 74
17:57:23.522336 379.95 1420 2760 14112 -1203 86 74
17:57:23.522435 379.96 1400 2784 14080 -1168 114 65
17:57:23.529560 379.97 1496 2724 14160 -1131 92 67
17:57:23.554620 379.98 1336 2700 14044 -1128 77 49
17:57:23.557180 379.99 1524 2688 14188 -1124 93 43
17:57:23.567641 380.0 1432 2664 14156 -1074 70 39
17:57:23.589002 380.01 1380 2668 14020 -1097 80 36
17:57:23.591781 380.02 1408 2676 14204 -1045 53 36
17:57:23.592880 380.03 1356 2628 14108 -998 80 58
17:57:23.616757 380.04 1428 2560 14032 -968 104 58
17:57:23.625598 380.05 1464 2588 14100 -1005 74 9
17:57:23.627265 380.06 1492 2544 14260 -942 94 55
17:57:23.649454 380.07 1460 2496 14240 -919 119 20
17:57:23.657215 380.08 1388 2536 14172 -953 133 27
17:57:23.657368 380.09 1460 2548 14172 -993 129 46
17:57:23.664751 380.1 1420 2464 14112 -1003 93 38
17:57:23.689904 380.11 1528 2460 14144 -993 38 56
17:57:23.694008 380.12 1476 2452 14020 -925 72 19
17:57:23.715902 380.13 1400 2464 14188 -873 87 55
17:57:23.727270 380.14 1448 2456 14212 -888 154 51
17:57:23.727402 380.15 1464 2396 14192 -882 158 12
17:57:23.727512 380.16 1420 2336 14332 -914 139 14
17:57:23.732689 380.17 1448 2288 14232 -801 142 3
17:57:23.747225 380.18 1412 2316 14188 -717 132 6
17:57:23.763615 380.19 1576 2324 14260 -707 141 5
17:57:23.771011 380.2 1488 2244 14196 -707 150 25
17:57:23.798682 380.21 1452 2324 14160 -742 40 46
17:57:23.800279 380.22 1580 2304 13904 -789 32 49
17:57:23.801470 380.23 1464 2248 14012 -541 95 -2
17:57:23.807423 380.24 1584 2236 14260 -141 193 -11
17:57:23.833339 380.25 1528 2244 14196 7 251 -4
17:57:23.833991 380.26 1380 2400 14152 53 197 -29
17:57:23.849437 380.27 1368 2176 13988 -117 87 17
17:57:23.883912 380.28 1528 2192 14016 66 96 19
17:57:23.898495 380.29 1504 2244 14456 328 195 -13
17:57:23.898584 380.3 1404 2308 14324 79 423 -5
17:57:23.898654 380.31 1320 2376 13692 -833 269 51
17:57:23.917974 380.32 1600 1996 14332 -330 162 15
17:57:23.928262 380.33 1592 2272 14480 1243 274 -154
17:57:23.928399 380.34 1384 2508 13932 204 -188 2
17:57:23.929050 380.35 1556 2084 14172 402 162 -62
17:57:23.944683 380.36 1420 2348 14180 887 337 -42
17:57:23.957408 380.37 1364 2392 13656 -533 -131 110
17:57:23.957521 380.38 1464 2020 13864 6 132 49
17:57:23.971315 380.39 1596 2220 14212 1103 255 -54
17:57:23.988653 380.4 1572 2552 14644 1143 281 -93
17:57:24.003978 380.41 1616 2552 14432 998 264 -81
17:57:24.031723 380.42 1380 2560 14252 667 300 -20
17:57:24.037052 380.43 1392 2640 14380 482 322 11
17:57:24.037571 380.44 1432 2524 14188 480 247 9
17:57:24.054035 380.45 1432 2468 14240 540 214 -8
17:57:24.064419 380.46 1556 2472 14064 662 295 -40
17:57:24.064798 380.47 1572 2400 13780 759 281 -24
17:57:24.065070 380.48 1536 2384 13928 1093 270 -27
17:57:24.070022 380.49 1444 2420 13996 1362 299 -94
17:57:24.097782 380.5 1496 2472 14220 1564 295 -133
17:57:24.098160 380.51 1588 2596 14232 1574 393 -143
17:57:24.129408 380.52 1444 2708 14356 1332 382 -176
17:57:24.132683 380.53 1500 2756 14144 1173 405 -142
17:57:24.135409 380.54 1420 2724 14084 1029 435 -129
17:57:24.160989 380.55 1500 2824 14084 1004 359 -88
17:57:24.161187 380.56 1468 2764 14076 905 268 -102
17:57:24.162097 380.57 1452 2736 14016 920 221 -98
17:57:24.162956 380.58 1472 2836 14056 947 228 -84
17:57:24.167408 380.59 1496 2860 14164 892 257 -74
17:57:24.192140 380.6 1336 2780 14180 908 282 -85
