18:04:00.006609, 500.1475, 4214
18:04:00.006661, 500.15, 4243
18:04:00.006683, 500.1525, 4244
18:04:00.006704, 500.155, 4161
18:04:00.007080, 500.1575, 4242
18:04:00.007108, 500.16, 4227
18:04:00.007124, 500.1625, 4224
18:04:00.007139, 500.165, 4233
18:04:00.007408, 500.1675, 4213
18:04:00.007428, 500.17, 4214
18:04:00.007443, 500.1725, 4084
18:04:00.007458, 500.175, 4218
18:04:00.007473, 500.1775, 4211
18:04:00.009065, 500.18, 4208
18:04:00.009086, 500.1825, 4208
18:04:00.009102, 500.185, 4208
18:04:00.009117, 500.1875, 4216
18:04:00.037236, 500.19, 4185
18:04:00.037336, 500.1925, 4224
18:04:00.037368, 500.195, 4213
18:04:00.037395, 500.1975, 4198
18:04:00.037884, 500.2, 4219
18:04:00.037915, 500.2025, 4237
18:04:00.037936, 500.205, 4191
18:04:00.037957, 500.2075, 4119
18:04:00.068685, 500.21, 4202
18:04:00.068792, 500.2125, 4201
18:04:00.068832, 500.215, 4179
18:04:00.068864, 500.2175, 4158
18:04:00.069411, 500.22, 4240
18:04:00.069490, 500.2225, 4226
18:04:00.069518, 500.225, 4132
18:04:00.069542, 500.2275, 4218
18:04:00.069948, 500.23, 4206
18:04:00.069979, 500.2325, 4213
18:04:00.070002, 500.235, 4148
18:04:00.070025, 500.2375, 4214
18:04:00.070571, 500.24, 4208
18:04:00.070602, 500.2425, 4078
18:04:00.070626, 500.245, 4200
18:04:00.070649, 500.2475, 4207
18:04:00.104215, 500.25, 4205
18:04:00.104275, 500.2525, 4176
18:04:00.104296, 500.255, 4197
18:04:00.104315, 500.2575, 4161
18:04:00.104629, 500.26, 4086
18:04:00.104655, 500.2625, 4168
18:04:00.104670, 500.265, 4146
18:04:00.104683, 500.2675, 4155
18:04:00.104697, 500.27, 4161
18:04:00.104941, 500.2725, 4173
18:04:00.104959, 500.275, 4139
18:04:00.104973, 500.2775, 4004
18:04:00.104987, 500.28, 4140
18:04:00.105226, 500.2825, 4130
18:04:00.105244, 500.285, 4099
18:04:00.105258, 500.2875, 4099
18:04:00.105272, 500.29, 4076
18:04:00.137298, 500.2925, 4087
18:04:00.137347, 500.295, 3986
18:04:00.137369, 500.2975, 4063
18:04:00.137389, 500.3, 4076
18:04:00.137753, 500.3025, 4074
18:04:00.137775, 500.305, 4079
18:04:00.137791, 500.3075, 4110
18:04:00.137806, 500.31, 4118
18:04:00.170002, 500.3125, 4048
18:04:00.170066, 500.315, 4137
18:04:00.170090, 500.3175, 4139
18:04:00.170111, 500.32, 4142
18:04:00.170460, 500.3225, 4155
18:04:00.170483, 500.325, 4151
18:04:00.170499, 500.3275, 4187
18:04:00.170514, 500.33, 4176
18:04:00.170529, 500.3325, 4185
18:04:00.170792, 500.335, 4199
18:04:00.170812, 500.3375, 4202
18:04:00.170827, 500.34, 4195
18:04:00.170850, 500.3425, 4215
18:04:00.171111, 500.345, 4228
18:04:00.171132, 500.3475, 4159
18:04:00.171147, 500.35, 4258
18:04:00.171162, 500.3525, 4253
18:04:00.201783, 500.355, 4230
18:04:00.201875, 500.3575, 4242
18:04:00.201920, 500.36, 4213
18:04:00.202054, 500.3625, 4216
18:04:00.202818, 500.365, 4199
18:04:00.202908, 500.3675, 4232
18:04:00.202946, 500.37, 4234
18:04:00.202975, 500.3725, 4244
18:04:00.203467, 500.375, 4245
18:04:00.203504, 500.3775, 4241
18:04:00.203532, 500.38, 4237
18:04:00.203559, 500.3825, 4128
18:04:00.210764, 500.385, 4227
18:04:00.210839, 500.3875, 4218
18:04:00.210910, 500.39, 4212
18:04:00.210956, 500.3925, 4231
18:04:00.235105, 500.395, 4244
18:04:00.235227, 500.3975, 4217
18:04:00.235321, 500.4, 4124
18:04:00.235379, 500.4025, 4211
18:04:00.236810, 500.405, 4198
18:04:00.236867, 500.4075, 4196
18:04:00.236897, 500.41, 4196
18:04:00.236922, 500.4125, 4207
18:04:00.236947, 500.415, 4188
18:04:00.246190, 500.4175, 4139
18:04:00.246273, 500.42, 4204
18:04:00.246328, 500.4225, 4208
18:04:00.246378, 500.425, 4200
18:04:00.272889, 500.4275, 4211
18:04:00.272957, 500.43, 4220
18:04:00.272988, 500.4325, 4201
18:04:00.273018, 500.435, 4121
18:04:00.273393, 500.4375, 4200
18:04:00.273419, 500.44, 4200
18:04:00.273436, 500.4425, 4179
18:04:00.273451, 500.445, 4172
18:04:00.273715, 500.4475, 4165
18:04:00.273740, 500.45, 4176
18:04:00.273755, 500.4525, 4087
18:04:00.273769, 500.455, 4173
18:04:00.280618, 500.4575, 4174
18:04:00.280672, 500.46, 4159
18:04:00.280695, 500.4625, 4153
18:04:00.280716, 500.465, 4170
18:04:00.310046, 500.4675, 4166
18:04:00.310162, 500.47, 4089
18:04:00.310217, 500.4725, 4193
18:04:00.310277, 500.475, 4182
18:04:00.311390, 500.4775, 4156
18:04:00.311478, 500.48, 4170
18:04:00.311535, 500.4825, 4170
18:04:00.311588, 500.485, 4162
18:04:00.311640, 500.4875, 4072
18:04:00.316829, 500.49, 4178
18:04:00.316879, 500.4925, 4188
18:04:00.316906, 500.495, 4162
18:04:00.316965, 500.4975, 4157
18:04:00.338098, 500.5, 4192
18:04:00.338171, 500.5025, 4161
18:04:00.338191, 500.505, 4085
18:04:00.338253, 500.5075, 4163
18:04:00.338538, 500.51, 4171
18:04:00.338558, 500.5125, 4189
18:04:00.338572, 500.515, 4179
18:04:00.338586, 500.5175, 4187
18:04:00.350634, 500.52, 4188
18:04:00.350728, 500.5225, 4136
18:04:00.350750, 500.525, 4197
18:04:00.350766, 500.5275, 4211
18:04:00.368439, 500.53, 4188
18:04:00.368533, 500.5325, 4193
18:04:00.368569, 500.535, 4215
18:04:00.368597, 500.5375, 4206
18:04:00.369164, 500.54, 4125
18:04:00.369218, 500.5425, 4208
18:04:00.369242, 500.545, 4184
18:04:00.369263, 500.5475, 4196
18:04:00.376797, 500.55, 4205
18:04:00.376859, 500.5525, 4207
18:04:00.376889, 500.555, 4208
18:04:00.376916, 500.5575, 4111
18:04:00.402444, 500.56, 4204
18:04:00.402558, 500.5625, 4198
18:04:00.402594, 500.565, 4188
18:04:00.402643, 500.5675, 4188
18:04:00.403229, 500.57, 4205
18:04:00.403279, 500.5725, 4191
18:04:00.403303, 500.575, 4115
18:04:00.403325, 500.5775, 4180
18:04:00.403348, 500.58, 4177
18:04:00.412160, 500.5825, 4177
18:04:00.412255, 500.585, 4189
18:04:00.412312, 500.5875, 4180
18:04:00.412364, 500.59, 4178
18:04:00.435842, 500.5925, 4134
18:04:00.435916, 500.595, 4164
18:04:00.435941, 500.5975, 4191
18:04:00.435961, 500.6, 4185
18:04:00.436330, 500.6025, 4187
18:04:00.436360, 500.605, 4197
18:04:00.436375, 500.6075, 4193
18:04:00.436389, 500.61, 4100
18:04:00.437674, 500.6125, 4190
18:04:00.437706, 500.615, 4185
18:04:00.437721, 500.6175, 4174
18:04:00.437735, 500.62, 4149
18:04:00.447361, 500.6225, 4173
18:04:00.447444, 500.625, 4170
18:04:00.447494, 500.6275, 4083
18:04:00.447539, 500.63, 4174
18:04:00.473053, 500.6325, 4178
18:04:00.473114, 500.635, 4158
18:04:00.473138, 500.6375, 4176
18:04:00.473159, 500.64, 4176
18:04:00.473506, 500.6425, 4195
18:04:00.473532, 500.645, 4089
18:04:00.473548, 500.6475, 4204
18:04:00.473563, 500.65, 4165
18:04:00.482184, 500.6525, 4159
18:04:00.482274, 500.655, 4173
18:04:00.482329, 500.6575, 4192
18:04:00.482379, 500.66, 4193
18:04:00.504660, 500.6625, 4113
18:04:00.504745, 500.665, 4212
18:04:00.504777, 500.6675, 4204
18:04:00.504806, 500.67, 4199
18:04:00.504868, 500.6725, 4189
18:04:00.505342, 500.675, 4223
18:04:00.505373, 500.6775, 4196
18:04:00.505395, 500.68, 4099
18:04:00.505416, 500.6825, 4183
18:04:00.536079, 500.685, 4179
18:04:00.536178, 500.6875, 4165
18:04:00.536203, 500.69, 4146
18:04:00.536223, 500.6925, 4173
18:04:00.536660, 500.695, 4169
18:04:00.536692, 500.6975, 4082
18:04:00.536707, 500.7, 4173
18:04:00.536721, 500.7025, 4154
18:04:00.536986, 500.705, 4167
18:04:00.537009, 500.7075, 4110
18:04:00.537025, 500.71, 4155
18:04:00.537039, 500.7125, 4184
18:04:00.542912, 500.715, 4109
18:04:00.542963, 500.7175, 4157
18:04:00.542993, 500.72, 4145
18:04:00.543020, 500.7225, 4136
18:04:00.569721, 500.725, 4159
18:04:00.569827, 500.7275, 4154
18:04:00.569939, 500.73, 4146
18:04:00.569967, 500.7325, 4060
18:04:00.571426, 500.735, 4158
18:04:00.571470, 500.7375, 4151
18:04:00.571492, 500.74, 4159
18:04:00.571512, 500.7425, 4149
18:04:00.572634, 500.745, 4166
18:04:00.572660, 500.7475, 4178
18:04:00.572679, 500.75, 4054
18:04:00.572699, 500.7525, 4151
18:04:00.602622, 500.755, 4153
18:04:00.602719, 500.7575, 4158
18:04:00.602747, 500.76, 4106
18:04:00.602768, 500.7625, 4159
18:04:00.603161, 500.765, 4145
18:04:00.603208, 500.7675, 4122
18:04:00.603227, 500.77, 4138
18:04:00.603242, 500.7725, 4151
18:04:00.603259, 500.775, 4137
18:04:00.604089, 500.7775, 4137
18:04:00.604124, 500.78, 4167
18:04:00.604140, 500.7825, 4157
18:04:00.604155, 500.785, 4089
18:04:00.612686, 500.7875, 4194
18:04:00.612716, 500.79, 4184
18:04:00.612734, 500.7925, 4161
18:04:00.612749, 500.795, 4163
18:04:00.640688, 500.7975, 4167
18:04:00.640778, 500.8, 4172
18:04:00.640805, 500.8025, 4075
18:04:00.640826, 500.805, 4173
18:04:00.641165, 500.8075, 4175
18:04:00.641191, 500.81, 4165
18:04:00.641207, 500.8125, 4157
18:04:00.641223, 500.815, 4160
18:04:00.648158, 500.8175, 4179
18:04:00.648211, 500.82, 4086
18:04:00.648235, 500.8225, 4164
18:04:00.648256, 500.825, 4162
18:04:00.671150, 500.8275, 4162
18:04:00.671259, 500.83, 4126
18:04:00.671298, 500.8325, 4152
18:04:00.671326, 500.835, 4148
18:04:00.671759, 500.8375, 4071
18:04:00.671789, 500.84, 4165
18:04:00.671809, 500.8425, 4153
18:04:00.671829, 500.845, 4156
18:04:00.674045, 500.8475, 4169
18:04:00.674076, 500.85, 4195
18:04:00.674098, 500.8525, 4173
18:04:00.674120, 500.855, 4078
18:04:00.682675, 500.8575, 4175
18:04:00.682705, 500.86, 4172
18:04:00.682721, 500.8625, 4150
18:04:00.682735, 500.865, 4154
18:04:00.707185, 500.8675, 4162
18:04:00.707285, 500.87, 4148
18:04:00.707325, 500.8725, 4070
18:04:00.707359, 500.875, 4155
18:04:00.707428, 500.8775, 4140
18:04:00.709234, 500.88, 4147
18:04:00.709281, 500.8825, 4142
18:04:00.709308, 500.885, 4152
18:04:00.709333, 500.8875, 4154
18:04:00.718559, 500.89, 4091
18:04:00.718625, 500.8925, 4153
18:04:00.718669, 500.895, 4154
18:04:00.718686, 500.8975, 4128
18:04:00.736458, 500.9, 4129
18:04:00.736552, 500.9025, 4143
18:04:00.736608, 500.905, 4127
18:04:00.736632, 500.9075, 4043
18:04:00.736980, 500.91, 4142
18:04:00.737018, 500.9125, 4135
18:04:00.737035, 500.915, 4104
18:04:00.737051, 500.9175, 4106
18:04:00.744614, 500.92, 4127
18:04:00.744699, 500.9225, 4119
18:04:00.744751, 500.925, 4039
18:04:00.744797, 500.9275, 4111
18:04:00.753611, 500.93, 4106
18:04:00.753684, 500.9325, 4127
18:04:00.753707, 500.935, 4131
18:04:00.753727, 500.9375, 4142
18:04:00.774733, 500.94, 4144
18:04:00.774806, 500.9425, 4067
18:04:00.774877, 500.945, 4140
18:04:00.774902, 500.9475, 4149
18:04:00.774935, 500.95, 4144
18:04:00.779381, 500.9525, 4162
18:04:00.779444, 500.955, 4163
18:04:00.779478, 500.9575, 4161
18:04:00.779508, 500.96, 4055
18:04:00.807048, 500.9625, 4123
18:04:00.807147, 500.965, 4074
18:04:00.807180, 500.9675, 4061
18:04:00.807223, 500.97, 4069
18:04:00.807558, 500.9725, 4048
18:04:00.807584, 500.975, 4029
18:04:00.807600, 500.9775, 3989
18:04:00.807615, 500.98, 4118
18:04:00.807875, 500.9825, 4124
18:04:00.807894, 500.985, 4133
18:04:00.807909, 500.9875, 4136
18:04:00.807924, 500.99, 4153
18:04:00.841345, 500.9925, 4190
18:04:00.841428, 500.995, 4099
18:04:00.841464, 500.9975, 4171
18:04:00.841492, 501.0, 4169
18:04:00.842099, 501.0025, 4173
18:04:00.842157, 501.005, 4176
18:04:00.842192, 501.0075, 4166
18:04:00.842221, 501.01, 4152
18:04:00.842251, 501.0125, 4078
18:04:00.842742, 501.015, 4181
18:04:00.842780, 501.0175, 4160
18:04:00.842807, 501.02, 4170
18:04:00.842835, 501.0225, 4164
18:04:00.849521, 501.025, 4169
18:04:00.849566, 501.0275, 4172
18:04:00.849595, 501.03, 4075
18:04:00.849623, 501.0325, 4163
18:04:00.873950, 501.035, 4175
18:04:00.874082, 501.0375, 4165
18:04:00.874125, 501.04, 4153
18:04:00.874151, 501.0425, 4166
18:04:00.875250, 501.045, 4165
18:04:00.875277, 501.0475, 4067
18:04:00.875296, 501.05, 4151
18:04:00.875315, 501.0525, 4162
18:04:00.884214, 501.055, 4171
18:04:00.884258, 501.0575, 4177
18:04:00.884284, 501.06, 4186
18:04:00.884309, 501.0625, 4190
18:04:00.905671, 501.065, 4180
18:04:00.905763, 501.0675, 4374
18:04:00.905818, 501.07, 4418
18:04:00.905841, 501.0725, 4439
18:04:00.906160, 501.075, 4461
18:04:00.906190, 501.0775, 4513
18:04:00.906206, 501.08, 4491
18:04:00.906221, 501.0825, 4247
18:04:00.906236, 501.085, 4118
18:04:00.910533, 501.0875, 3854
18:04:00.910566, 501.09, 3493
18:04:00.910588, 501.0925, 3163
18:04:00.910642, 501.095, 2746
18:04:00.921310, 501.0975, 2250
18:04:00.921419, 501.1, 1685
18:04:00.921455, 501.1025, 1522
18:04:00.921485, 501.105, 1551
18:04:00.940424, 501.1075, 1782
18:04:00.940491, 501.11, 2504
18:04:00.940516, 501.1125, 3462
18:04:00.940536, 501.115, 4307
18:04:00.946189, 501.1175, 4755
18:04:00.946268, 501.12, 4986
18:04:00.946316, 501.1225, 4935
18:04:00.946358, 501.125, 4779
18:04:00.973919, 501.1275, 4644
18:04:00.973988, 501.13, 4580
18:04:00.974011, 501.1325, 4549
18:04:00.974029, 501.135, 4420
18:04:00.974390, 501.1375, 4497
18:04:00.974411, 501.14, 4516
18:04:00.974426, 501.1425, 4523
18:04:00.974439, 501.145, 4542
18:04:00.974682, 501.1475, 4550
18:04:00.974700, 501.15, 4554
18:04:00.974714, 501.1525, 4465
18:04:00.974728, 501.155, 4580
18:04:00.980422, 501.1575, 4531
18:04:00.980458, 501.16, 4536
18:04:00.980473, 501.1625, 4507
18:04:00.980487, 501.165, 4505
18:04:01.008057, 501.1675, 4519
18:04:01.008120, 501.17, 4419
18:04:01.008142, 501.1725, 4479
18:04:01.008161, 501.175, 4462
18:04:01.008515, 501.1775, 4449
18:04:01.008536, 501.18, 4445
18:04:01.008550, 501.1825, 4428
18:04:01.008564, 501.185, 4425
18:04:01.038113, 501.1875, 4333
18:04:01.038198, 501.19, 4407
18:04:01.038223, 501.1925, 4383
18:04:01.038243, 501.195, 4363
18:04:01.038276, 501.1975, 4370
18:04:01.038661, 501.2, 4386
18:04:01.038695, 501.2025, 4377
18:04:01.038748, 501.205, 4343
18:04:01.038766, 501.2075, 4347
18:04:01.039184, 501.21, 4345
18:04:01.039226, 501.2125, 4340
18:04:01.039248, 501.215, 4326
18:04:01.039269, 501.2175, 4335
18:04:01.041660, 501.22, 4332
18:04:01.041696, 501.2225, 4241
18:04:01.041718, 501.225, 4300
18:04:01.041739, 501.2275, 4302
18:04:01.074544, 501.23, 4302
18:04:01.074598, 501.2325, 4289
18:04:01.074619, 501.235, 4313
18:04:01.074637, 501.2375, 4292
18:04:01.075073, 501.24, 4254
18:04:01.075104, 501.2425, 4279
18:04:01.075126, 501.245, 4253
18:04:01.075147, 501.2475, 4270
18:04:01.076645, 501.25, 4242
18:04:01.076677, 501.2525, 4237
18:04:01.076698, 501.255, 4239
18:04:01.076719, 501.2575, 4157
18:04:01.108160, 501.26, 4243
18:04:01.108238, 501.2625, 4236
18:04:01.108274, 501.265, 4248
18:04:01.108306, 501.2675, 4213
18:04:01.108679, 501.27, 4230
18:04:01.108704, 501.2725, 4243
18:04:01.108720, 501.275, 4223
18:04:01.108735, 501.2775, 4232
18:04:01.108995, 501.28, 4220
18:04:01.109016, 501.2825, 4196
18:04:01.109030, 501.285, 4188
18:04:01.109045, 501.2875, 4231
18:04:01.120635, 501.29, 4214
18:04:01.120679, 501.2925, 4149
18:04:01.120698, 501.295, 4243
18:04:01.120717, 501.2975, 4218
18:04:01.143898, 501.3, 4217
18:04:01.143983, 501.3025, 4227
18:04:01.144008, 501.305, 4222
18:04:01.144029, 501.3075, 4212
18:04:01.144050, 501.31, 4127
18:04:01.144377, 501.3125, 4243
18:04:01.144401, 501.315, 4244
18:04:01.144416, 501.3175, 4237
18:04:01.144432, 501.32, 4217
18:04:01.146584, 501.3225, 4257
18:04:01.146635, 501.325, 4229
18:04:01.146668, 501.3275, 4139
18:04:01.146699, 501.33, 4232
18:04:01.176758, 501.3325, 4250
18:04:01.176839, 501.335, 4215
18:04:01.176868, 501.3375, 4215
18:04:01.176915, 501.34, 4248
18:04:01.177352, 501.3425, 4209
18:04:01.177379, 501.345, 4171
18:04:01.177399, 501.3475, 4213
18:04:01.177417, 501.35, 4181
18:04:01.182253, 501.3525, 4180
18:04:01.182349, 501.355, 4162
18:04:01.182404, 501.3575, 4161
18:04:01.182454, 501.36, 4180
18:04:01.205706, 501.3625, 4100
18:04:01.205794, 501.365, 4214
18:04:01.205819, 501.3675, 4204
18:04:01.205837, 501.37, 4182
18:04:01.205854, 501.3725, 4193
18:04:01.206288, 501.375, 4193
18:04:01.206321, 501.3775, 4175
18:04:01.206336, 501.38, 4086
18:04:01.206351, 501.3825, 4171
18:04:01.207907, 501.385, 4167
18:04:01.207957, 501.3875, 4130
18:04:01.207985, 501.39, 4141
18:04:01.208012, 501.3925, 4133
18:04:01.238970, 501.395, 4088
18:04:01.239055, 501.3975, 4028
18:04:01.239077, 501.4, 4108
18:04:01.239097, 501.4025, 4096
18:04:01.239543, 501.405, 4071
18:04:01.239577, 501.4075, 4079
18:04:01.239593, 501.41, 4089
18:04:01.239608, 501.4125, 4092
18:04:01.242680, 501.415, 4020
18:04:01.242713, 501.4175, 4131
18:04:01.242729, 501.42, 4143
18:04:01.242743, 501.4225, 4152
18:04:01.252394, 501.425, 4141
18:04:01.252478, 501.4275, 4155
18:04:01.252527, 501.43, 4135
18:04:01.252573, 501.4325, 4087
18:04:01.275891, 501.435, 4161
18:04:01.275976, 501.4375, 4165
18:04:01.276001, 501.44, 4177
18:04:01.276022, 501.4425, 4177
18:04:01.276475, 501.445, 4191
18:04:01.276513, 501.4475, 4202
18:04:01.276541, 501.45, 4130
18:04:01.276568, 501.4525, 4200
18:04:01.287227, 501.455, 4227
18:04:01.287290, 501.4575, 4214
18:04:01.287322, 501.46, 4195
18:04:01.287351, 501.4625, 4209
18:04:01.287380, 501.465, 4217
18:04:01.307356, 501.4675, 4211
18:04:01.307472, 501.47, 4224
18:04:01.307515, 501.4725, 4209
18:04:01.307549, 501.475, 4204
18:04:01.308163, 501.4775, 4204
18:04:01.308212, 501.48, 4219
18:04:01.308239, 501.4825, 4199
18:04:01.308263, 501.485, 4092
18:04:01.312844, 501.4875, 4198
18:04:01.312887, 501.49, 4191
18:04:01.312913, 501.4925, 4200
18:04:01.312938, 501.495, 4180
18:04:01.322122, 501.4975, 4203
18:04:01.322174, 501.5, 4221
18:04:01.322197, 501.5025, 4110
18:04:01.322218, 501.505, 4219
18:04:01.343634, 501.5075, 4185
18:04:01.343719, 501.51, 4195
18:04:01.343744, 501.5125, 4158
18:04:01.343765, 501.515, 4214
18:04:01.348474, 501.5175, 4197
18:04:01.348575, 501.52, 4100
18:04:01.348631, 501.5225, 4181
18:04:01.348684, 501.525, 4181
18:04:01.348751, 501.5275, 4188
18:04:01.373172, 501.53, 4192
18:04:01.373299, 501.5325, 4215
18:04:01.373326, 501.535, 4183
18:04:01.373368, 501.5375, 4081
18:04:01.373662, 501.54, 4185
18:04:01.373692, 501.5425, 4168
18:04:01.373707, 501.545, 4179
18:04:01.373722, 501.5475, 4147
18:04:01.374055, 501.55, 4153
18:04:01.374088, 501.5525, 4164
18:04:01.374103, 501.555, 4084
18:04:01.374118, 501.5575, 4188
18:04:01.383396, 501.56, 4189
18:04:01.383494, 501.5625, 4183
18:04:01.383553, 501.565, 4165
18:04:01.383606, 501.5675, 4198
18:04:01.408390, 501.57, 4163
18:04:01.408508, 501.5725, 4078
18:04:01.408538, 501.575, 4173
18:04:01.408581, 501.5775, 4156
18:04:01.408947, 501.58, 4179
18:04:01.408971, 501.5825, 4149
18:04:01.408987, 501.585, 4166
18:04:01.409002, 501.5875, 4164
18:04:01.442934, 501.59, 4082
18:04:01.443004, 501.5925, 4179
18:04:01.443040, 501.595, 4173
18:04:01.443075, 501.5975, 4204
18:04:01.443477, 501.6, 4162
18:04:01.443502, 501.6025, 4160
18:04:01.443519, 501.605, 4174
18:04:01.443534, 501.6075, 4105
18:04:01.443803, 501.61, 4215
18:04:01.443823, 501.6125, 4222
18:04:01.443839, 501.615, 4198
18:04:01.443855, 501.6175, 4176
18:04:01.443870, 501.62, 4219
18:04:01.453233, 501.6225, 4204
18:04:01.453317, 501.625, 4117
18:04:01.453353, 501.6275, 4196
18:04:01.453387, 501.63, 4193
18:04:01.478527, 501.6325, 4172
18:04:01.478693, 501.635, 4170
18:04:01.478751, 501.6375, 4195
18:04:01.478798, 501.64, 4184
18:04:01.479661, 501.6425, 4094
18:04:01.479747, 501.645, 4183
18:04:01.479805, 501.6475, 4189
18:04:01.479857, 501.65, 4194
18:04:01.507428, 501.6525, 4179
18:04:01.507531, 501.655, 4169
18:04:01.507564, 501.6575, 4161
18:04:01.507590, 501.66, 4094
18:04:01.507995, 501.6625, 4185
18:04:01.508035, 501.665, 4167
18:04:01.508051, 501.6675, 4173
18:04:01.508065, 501.67, 4171
18:04:01.508322, 501.6725, 4209
18:04:01.508351, 501.675, 4169
18:04:01.508365, 501.6775, 4059
18:04:01.508379, 501.68, 4198
18:04:01.514270, 501.6825, 4213
18:04:01.514356, 501.685, 4191
18:04:01.514406, 501.6875, 4163
18:04:01.514452, 501.69, 4182
18:04:01.524526, 501.6925, 4186
18:04:01.524598, 501.695, 4167
18:04:01.525622, 501.6975, 4169
18:04:01.525716, 501.7, 4194
18:04:01.525756, 501.7025, 4174
18:04:01.549151, 501.705, 4174
18:04:01.549195, 501.7075, 4179
18:04:01.549235, 501.71, 4170
18:04:01.549262, 501.7125, 4082
18:04:01.550186, 501.715, 4162
18:04:01.550282, 501.7175, 4175
18:04:01.550337, 501.72, 4140
18:04:01.550387, 501.7225, 4148
18:04:01.551306, 501.725, 4142
18:04:01.551379, 501.7275, 4152
18:04:01.551432, 501.73, 4077
18:04:01.551481, 501.7325, 4183
18:04:01.574494, 501.735, 4172
18:04:01.574610, 501.7375, 4172
18:04:01.574636, 501.74, 4174
18:04:01.574656, 501.7425, 4170
18:04:01.575335, 501.745, 4155
18:04:01.575384, 501.7475, 4066
18:04:01.575400, 501.75, 4162
18:04:01.575415, 501.7525, 4155
18:04:01.584572, 501.755, 4163
18:04:01.584680, 501.7575, 4168
18:04:01.584736, 501.76, 4171
18:04:01.584787, 501.7625, 4165
18:04:01.610443, 501.765, 4081
18:04:01.610542, 501.7675, 4172
18:04:01.610569, 501.77, 4179
18:04:01.610599, 501.7725, 4165
18:04:01.610621, 501.775, 4166
18:04:01.610948, 501.7775, 4175
18:04:01.610971, 501.78, 4148
18:04:01.610987, 501.7825, 4074
18:04:01.611001, 501.785, 4182
18:04:01.611258, 501.7875, 4170
18:04:01.611277, 501.79, 4169
18:04:01.611292, 501.7925, 4175
18:04:01.611307, 501.795, 4186
18:04:01.619394, 501.7975, 4166
18:04:01.619473, 501.8, 4094
18:04:01.619514, 501.8025, 4175
18:04:01.619551, 501.805, 4171
18:04:01.643530, 501.8075, 4162
18:04:01.643615, 501.81, 4179
18:04:01.643648, 501.8125, 4196
18:04:01.643675, 501.815, 4206
18:04:01.645516, 501.8175, 4139
18:04:01.645545, 501.82, 4187
18:04:01.645562, 501.8225, 4178
18:04:01.645577, 501.825, 4194
18:04:01.654295, 501.8275, 4163
18:04:01.654323, 501.83, 4189
18:04:01.654338, 501.8325, 4170
18:04:01.654353, 501.835, 4093
18:04:01.676226, 501.8375, 4192
18:04:01.676304, 501.84, 4161
18:04:01.676332, 501.8425, 4158
18:04:01.676357, 501.845, 4153
18:04:01.676754, 501.8475, 4170
18:04:01.676780, 501.85, 4174
18:04:01.676798, 501.8525, 4084
18:04:01.676815, 501.855, 4152
18:04:01.680423, 501.8575, 4155
18:04:01.680448, 501.86, 4145
18:04:01.680490, 501.8625, 4162
18:04:01.680507, 501.865, 4161
18:04:01.709928, 501.8675, 4164
18:04:01.709999, 501.87, 4077
18:04:01.710056, 501.8725, 4187
18:04:01.710078, 501.875, 4194
18:04:01.710377, 501.8775, 4172
18:04:01.710398, 501.88, 4176
18:04:01.710413, 501.8825, 4166
18:04:01.710428, 501.885, 4168
18:04:01.710443, 501.8875, 4141
18:04:01.715920, 501.89, 4152
18:04:01.715999, 501.8925, 4150
18:04:01.716043, 501.895, 4171
18:04:01.716083, 501.8975, 4147
18:04:01.724514, 501.9, 4192
18:04:01.724608, 501.9025, 4182
18:04:01.724663, 501.905, 4074
18:04:01.724683, 501.9075, 4195
18:04:01.744538, 501.91, 4193
18:04:01.744599, 501.9125, 4193
18:04:01.744620, 501.915, 4175
18:04:01.744639, 501.9175, 4177
18:04:01.777759, 501.92, 4160
18:04:01.777846, 501.9225, 4071
18:04:01.777871, 501.925, 4152
18:04:01.777891, 501.9275, 4166
18:04:01.778202, 501.93, 4172
18:04:01.778224, 501.9325, 4166
18:04:01.778239, 501.935, 4167
18:04:01.778254, 501.9375, 4153
18:04:01.778514, 501.94, 4144
18:04:01.778533, 501.9425, 4174
18:04:01.778548, 501.945, 4167
18:04:01.778563, 501.9475, 4163
18:04:01.786682, 501.95, 4138
18:04:01.786736, 501.9525, 4183
18:04:01.786765, 501.955, 4179
18:04:01.786792, 501.9575, 4090
18:04:01.811807, 501.96, 4195
18:04:01.811886, 501.9625, 4196
18:04:01.811950, 501.965, 4156
18:04:01.811989, 501.9675, 4171
18:04:01.812021, 501.97, 4160
18:04:01.812539, 501.9725, 4144
18:04:01.812573, 501.975, 4014
18:04:01.812598, 501.9775, 4179
18:04:01.812623, 501.98, 4187
18:04:01.822510, 501.9825, 4190
18:04:01.822535, 501.985, 4073
18:04:01.822550, 501.9875, 4202
18:04:01.822563, 501.99, 4188
18:04:01.825310, 501.9925, 4089
18:04:01.825462, 501.995, 4205
18:04:01.825514, 501.9975, 4177
18:04:01.825540, 502.0, 4155
18:04:01.877848, 502.0025, 4150
18:04:01.877928, 502.005, 4180
18:04:01.877963, 502.0075, 4192
18:04:01.877985, 502.01, 4045
18:04:01.878347, 502.0125, 4159
18:04:01.878383, 502.015, 4140
18:04:01.878399, 502.0175, 4136
18:04:01.878414, 502.02, 4117
18:04:01.878677, 502.0225, 4102
18:04:01.878696, 502.025, 4076
18:04:01.878711, 502.0275, 3965
18:04:01.878726, 502.03, 4105
18:04:01.878740, 502.0325, 4141
18:04:01.879114, 502.035, 4120
18:04:01.879146, 502.0375, 4094
18:04:01.879169, 502.04, 4142
18:04:01.879193, 502.0425, 4139
18:04:01.879594, 502.045, 4018
18:04:01.879623, 502.0475, 4160
18:04:01.879647, 502.05, 4225
18:04:01.879668, 502.0525, 4186
18:04:01.881684, 502.055, 4189
18:04:01.881723, 502.0575, 4197
18:04:01.881746, 502.06, 4222
18:04:01.881785, 502.0625, 4106
18:04:01.891884, 502.065, 4210
18:04:01.892099, 502.0675, 4194
18:04:01.892163, 502.07, 4173
18:04:01.892185, 502.0725, 4170
18:04:01.913279, 502.075, 4171
18:04:01.913341, 502.0775, 4168
18:04:01.913372, 502.08, 4099
18:04:01.913402, 502.0825, 4197
18:04:01.913744, 502.085, 4187
18:04:01.913766, 502.0875, 4215
18:04:01.913782, 502.09, 4196
18:04:01.913796, 502.0925, 4201
18:04:01.925658, 502.095, 4175
18:04:01.926126, 502.0975, 4096
18:04:01.926161, 502.1, 4171
18:04:01.926181, 502.1025, 4166
18:04:01.948152, 502.105, 4160
18:04:01.948235, 502.1075, 4170
18:04:01.948262, 502.11, 4185
18:04:01.948283, 502.1125, 4213
18:04:01.948577, 502.115, 4227
18:04:01.948599, 502.1175, 4393
18:04:01.948615, 502.12, 4432
18:04:01.948629, 502.1225, 4459
18:04:01.951978, 502.125, 4462
18:04:01.952041, 502.1275, 4504
18:04:01.952081, 502.13, 4368
18:04:01.952118, 502.1325, 4106
18:04:01.977352, 502.135, 3965
18:04:01.977436, 502.1375, 3635
18:04:01.977463, 502.14, 3290
18:04:01.977483, 502.1425, 2887
18:04:01.977897, 502.145, 2450
18:04:01.977931, 502.1475, 1890
18:04:01.977947, 502.15, 1485
18:04:01.977962, 502.1525, 1522
18:04:01.986979, 502.155, 1671
18:04:01.987034, 502.1575, 2252
18:04:01.987050, 502.16, 3180
18:04:01.987064, 502.1625, 4052
18:04:01.987078, 502.165, 4583
18:04:02.010447, 502.1675, 4843
18:04:02.010578, 502.17, 4953
18:04:02.010601, 502.1725, 4840
18:04:02.010623, 502.175, 4678
18:04:02.011136, 502.1775, 4589
18:04:02.011173, 502.18, 4565
18:04:02.011188, 502.1825, 4546
18:04:02.011202, 502.185, 4432
18:04:02.012675, 502.1875, 4498
18:04:02.012744, 502.19, 4488
18:04:02.012762, 502.1925, 4515
18:04:02.012776, 502.195, 4532
18:04:02.022128, 502.1975, 4553
18:04:02.022217, 502.2, 4542
18:04:02.022267, 502.2025, 4459
18:04:02.022313, 502.205, 4559
18:04:02.046858, 502.2075, 4559
18:04:02.046921, 502.21, 4544
18:04:02.046946, 502.2125, 4524
18:04:02.046967, 502.215, 4504
18:04:02.047755, 502.2175, 4484
18:04:02.047785, 502.22, 4395
18:04:02.047803, 502.2225, 4467
18:04:02.047820, 502.225, 4452
18:04:02.057389, 502.2275, 4443
18:04:02.057473, 502.23, 4463
18:04:02.057490, 502.2325, 4432
18:04:02.057505, 502.235, 4415
18:04:02.078891, 502.2375, 4318
18:04:02.078953, 502.24, 4395
18:04:02.078975, 502.2425, 4391
18:04:02.078993, 502.245, 4360
18:04:02.079339, 502.2475, 4338
18:04:02.079360, 502.25, 4375
18:04:02.079376, 502.2525, 4347
18:04:02.079391, 502.255, 4259
18:04:02.082823, 502.2575, 4326
18:04:02.082977, 502.26, 4331
18:04:02.083014, 502.2625, 4331
18:04:02.083045, 502.265, 4303
18:04:02.083077, 502.2675, 4326
18:04:02.092809, 502.27, 4324
18:04:02.092902, 502.2725, 4225
18:04:02.092951, 502.275, 4321
18:04:02.092983, 502.2775, 4292
18:04:02.112053, 502.28, 4297
18:04:02.112147, 502.2825, 4293
18:04:02.112185, 502.285, 4272
18:04:02.112265, 502.2875, 4277
18:04:02.117797, 502.29, 4251
18:04:02.117838, 502.2925, 4279
18:04:02.117854, 502.295, 4276
18:04:02.117869, 502.2975, 4276
18:04:02.144166, 502.3, 4255
18:04:02.144256, 502.3025, 4260
18:04:02.144287, 502.305, 4268
18:04:02.144314, 502.3075, 4180
18:04:02.144869, 502.31, 4270
18:04:02.144916, 502.3125, 4246
18:04:02.144937, 502.315, 4242
18:04:02.144958, 502.3175, 4258
18:04:02.145317, 502.32, 4261
18:04:02.145350, 502.3225, 4259
18:04:02.145370, 502.325, 4159
18:04:02.145390, 502.3275, 4232
18:04:02.185318, 502.33, 4226
18:04:02.185370, 502.3325, 4200
18:04:02.185391, 502.335, 4204
18:04:02.185443, 502.3375, 4226
18:04:02.185470, 502.34, 4225
18:04:02.185792, 502.3425, 4173
18:04:02.185815, 502.345, 4227
18:04:02.185830, 502.3475, 4206
18:04:02.185845, 502.35, 4235
18:04:02.186098, 502.3525, 4213
18:04:02.186116, 502.355, 4240
18:04:02.186131, 502.3575, 4228
18:04:02.186145, 502.36, 4160
18:04:02.187681, 502.3625, 4224
18:04:02.187702, 502.365, 4232
18:04:02.187717, 502.3675, 4250
18:04:02.187731, 502.37, 4216
18:04:02.220527, 502.3725, 4229
18:04:02.220582, 502.375, 4218
18:04:02.220651, 502.3775, 4131
18:04:02.220675, 502.38, 4225
18:04:02.220969, 502.3825, 4197
18:04:02.220991, 502.385, 4198
18:04:02.221004, 502.3875, 4186
18:04:02.221017, 502.39, 4213
18:04:02.248091, 502.3925, 4235
18:04:02.248164, 502.395, 4135
18:04:02.248232, 502.3975, 4223
18:04:02.248295, 502.4, 4199
18:04:02.249820, 502.4025, 4173
18:04:02.249946, 502.405, 4188
18:04:02.250042, 502.4075, 4182
18:04:02.250142, 502.41, 4166
18:04:02.250241, 502.4125, 4161
18:04:02.251485, 502.415, 4186
18:04:02.251545, 502.4175, 4152
18:04:02.251596, 502.42, 4146
18:04:02.251646, 502.4225, 4102
18:04:02.281238, 502.425, 4155
18:04:02.281304, 502.4275, 4149
18:04:02.281337, 502.43, 4052
18:04:02.281368, 502.4325, 4144
18:04:02.283045, 502.435, 4117
18:04:02.283083, 502.4375, 4118
18:04:02.283114, 502.44, 4098
18:04:02.283146, 502.4425, 4113
18:04:02.285389, 502.445, 4115
18:04:02.285429, 502.4475, 4084
18:04:02.285461, 502.45, 4086
18:04:02.285492, 502.4525, 4093
18:04:02.286639, 502.455, 4087
18:04:02.286680, 502.4575, 4082
18:04:02.286712, 502.46, 4076
18:04:02.286742, 502.4625, 4097
18:04:02.311721, 502.465, 3966
18:04:02.311813, 502.4675, 4138
18:04:02.311883, 502.47, 4148
18:04:02.311906, 502.4725, 4153
18:04:02.311945, 502.475, 4162
18:04:02.312244, 502.4775, 4170
18:04:02.312275, 502.48, 4173
18:04:02.312290, 502.4825, 4156
18:04:02.312304, 502.485, 4182
18:04:02.312555, 502.4875, 4191
18:04:02.312580, 502.49, 4183
18:04:02.312594, 502.4925, 4186
18:04:02.312608, 502.495, 4250
18:04:02.345215, 502.4975, 4222
18:04:02.345374, 502.5, 4137
18:04:02.345421, 502.5025, 4239
18:04:02.345507, 502.505, 4226
18:04:02.345854, 502.5075, 4219
18:04:02.345893, 502.51, 4218
18:04:02.345911, 502.5125, 4234
18:04:02.345926, 502.515, 4235
18:04:02.346260, 502.5175, 4140
18:04:02.346287, 502.52, 4249
18:04:02.346301, 502.5225, 4235
18:04:02.346315, 502.525, 4222
18:04:02.354579, 502.5275, 4203
18:04:02.354682, 502.53, 4229
18:04:02.354739, 502.5325, 4206
18:04:02.354791, 502.535, 4132
18:04:02.382348, 502.5375, 4227
18:04:02.382417, 502.54, 4226
18:04:02.382443, 502.5425, 4237
18:04:02.382465, 502.545, 4236
18:04:02.382486, 502.5475, 4221
18:04:02.382871, 502.55, 4221
18:04:02.382895, 502.5525, 4140
18:04:02.382913, 502.555, 4214
18:04:02.382929, 502.5575, 4180
18:04:02.417004, 502.56, 4175
18:04:02.417058, 502.5625, 4193
18:04:02.417080, 502.565, 4229
18:04:02.417099, 502.5675, 4237
18:04:02.417425, 502.57, 4179
18:04:02.417455, 502.5725, 4196
18:04:02.417471, 502.575, 4214
18:04:02.417486, 502.5775, 4203
18:04:02.417747, 502.58, 4212
18:04:02.417767, 502.5825, 4196
18:04:02.417782, 502.585, 4193
18:04:02.417796, 502.5875, 4117
18:04:02.446163, 502.59, 4190
18:04:02.446271, 502.5925, 4189
18:04:02.446308, 502.595, 4177
18:04:02.446339, 502.5975, 4072
18:04:02.446945, 502.6, 4225
18:04:02.446993, 502.6025, 4208
18:04:02.447017, 502.605, 4179
18:04:02.447039, 502.6075, 4201
18:04:02.447061, 502.61, 4188
18:04:02.447464, 502.6125, 4157
18:04:02.447499, 502.615, 3991
18:04:02.447521, 502.6175, 4198
18:04:02.447546, 502.62, 4196
18:04:02.450253, 502.6225, 4048
18:04:02.450285, 502.625, 4166
18:04:02.450306, 502.6275, 4204
18:04:02.450325, 502.63, 4201
18:04:02.459725, 502.6325, 4171
18:04:02.459769, 502.635, 4178
18:04:02.459788, 502.6375, 4162
18:04:02.459807, 502.64, 4080
18:04:02.479003, 502.6425, 4171
18:04:02.479123, 502.645, 4189
18:04:02.479166, 502.6475, 4187
18:04:02.479186, 502.65, 4157
18:04:02.479677, 502.6525, 4164
18:04:02.479712, 502.655, 4174
18:04:02.479727, 502.6575, 4087
18:04:02.479742, 502.66, 4199
18:04:02.495336, 502.6625, 4184
18:04:02.495458, 502.665, 4196
18:04:02.495489, 502.6675, 4180
18:04:02.495518, 502.67, 4191
18:04:02.512376, 502.6725, 4190
18:04:02.512470, 502.675, 4087
18:04:02.512506, 502.6775, 4204
18:04:02.512525, 502.68, 4211
18:04:02.512546, 502.6825, 4201
18:04:02.512910, 502.685, 4179
18:04:02.512941, 502.6875, 4211
18:04:02.512956, 502.69, 4215
18:04:02.512970, 502.6925, 4131
18:04:02.520504, 502.695, 4219
18:04:02.520565, 502.6975, 4221
18:04:02.520593, 502.7, 4197
18:04:02.520619, 502.7025, 4194
18:04:02.547875, 502.705, 4196
18:04:02.547987, 502.7075, 4190
18:04:02.548027, 502.71, 4108
18:04:02.548063, 502.7125, 4193
18:04:02.548401, 502.715, 4196
18:04:02.548425, 502.7175, 4184
18:04:02.548442, 502.72, 4185
18:04:02.548458, 502.7225, 4201
18:04:02.555736, 502.725, 4191
18:04:02.555822, 502.7275, 4026
18:04:02.555871, 502.73, 4180
18:04:02.555917, 502.7325, 4201
18:04:02.583728, 502.735, 4187
18:04:02.583791, 502.7375, 4178
18:04:02.583814, 502.74, 4171
18:04:02.583849, 502.7425, 4189
18:04:02.584193, 502.745, 4103
18:04:02.584218, 502.7475, 4189
18:04:02.584234, 502.75, 4176
18:04:02.584250, 502.7525, 4165
18:04:02.584265, 502.755, 4176
18:04:02.584621, 502.7575, 4175
18:04:02.584654, 502.76, 4164
18:04:02.584675, 502.7625, 4072
18:04:02.584695, 502.765, 4160
18:04:02.591108, 502.7675, 4159
18:04:02.591186, 502.77, 4157
18:04:02.591239, 502.7725, 4145
18:04:02.591292, 502.775, 4164
18:04:02.616626, 502.7775, 4136
18:04:02.616706, 502.78, 4051
18:04:02.616730, 502.7825, 4162
18:04:02.616752, 502.785, 4168
18:04:02.617075, 502.7875, 4166
18:04:02.617100, 502.79, 4156
18:04:02.617116, 502.7925, 4154
18:04:02.617131, 502.795, 4168
18:04:02.625573, 502.7975, 4133
18:04:02.625637, 502.8, 4177
18:04:02.625671, 502.8025, 4161
18:04:02.625701, 502.805, 4161
18:04:02.647018, 502.8075, 4151
18:04:02.647136, 502.81, 4145
18:04:02.647180, 502.8125, 4136
18:04:02.647218, 502.815, 4051
18:04:02.647683, 502.8175, 4152
18:04:02.647724, 502.82, 4142
18:04:02.647744, 502.8225, 4156
18:04:02.647762, 502.825, 4138
18:04:02.651736, 502.8275, 4133
18:04:02.651786, 502.83, 4139
18:04:02.651814, 502.8325, 4053
18:04:02.651841, 502.835, 4155
18:04:02.660844, 502.8375, 4145
18:04:02.660885, 502.84, 4147
18:04:02.660904, 502.8425, 4128
18:04:02.660973, 502.845, 4153
18:04:02.680347, 502.8475, 4167
18:04:02.680421, 502.85, 4067
18:04:02.680458, 502.8525, 4161
18:04:02.680477, 502.855, 4170
18:04:02.680498, 502.8575, 4172
18:04:02.686854, 502.86, 4156
18:04:02.686906, 502.8625, 4186
18:04:02.686930, 502.865, 4149
18:04:02.686953, 502.8675, 4063
18:04:02.716553, 502.87, 4165
18:04:02.716609, 502.8725, 4151
18:04:02.716631, 502.875, 4140
18:04:02.716681, 502.8775, 4160
18:04:02.716984, 502.88, 4151
18:04:02.717006, 502.8825, 4165
18:04:02.717021, 502.885, 4127
18:04:02.717036, 502.8875, 4146
18:04:02.717294, 502.89, 4151
18:04:02.717314, 502.8925, 4138
18:04:02.717329, 502.895, 4094
18:04:02.717343, 502.8975, 4149
18:04:02.747359, 502.9, 4157
18:04:02.747444, 502.9025, 4068
18:04:02.747469, 502.905, 4168
18:04:02.747537, 502.9075, 4150
18:04:02.747954, 502.91, 4151
18:04:02.747995, 502.9125, 4148
18:04:02.748014, 502.915, 4169
18:04:02.748030, 502.9175, 4159
18:04:02.748046, 502.92, 4047
18:04:02.748314, 502.9225, 4134
18:04:02.748336, 502.925, 4155
18:04:02.748352, 502.9275, 4157
18:04:02.748367, 502.93, 4146
18:04:02.756545, 502.9325, 4136
18:04:02.756576, 502.935, 4138
18:04:02.756592, 502.9375, 4042
18:04:02.756608, 502.94, 4111
18:04:02.783715, 502.9425, 4108
18:04:02.783797, 502.945, 4122
18:04:02.783834, 502.9475, 4131
18:04:02.783863, 502.95, 4137
18:04:02.784355, 502.9525, 4129
18:04:02.784388, 502.955, 4072
18:04:02.784411, 502.9575, 4153
18:04:02.784439, 502.96, 4158
18:04:02.791758, 502.9625, 4168
18:04:02.791814, 502.965, 4144
18:04:02.791843, 502.9675, 4148
18:04:02.791870, 502.97, 4166
18:04:02.813867, 502.9725, 4053
18:04:02.813955, 502.975, 4159
18:04:02.813980, 502.9775, 4148
18:04:02.814001, 502.98, 4118
18:04:02.814067, 502.9825, 4150
18:04:02.814378, 502.985, 4161
18:04:02.814406, 502.9875, 4147
18:04:02.814422, 502.99, 4055
18:04:02.814436, 502.9925, 4166
18:04:02.818163, 502.995, 4154
18:04:02.818247, 502.9975, 4173
18:04:02.818302, 503.0, 4158
18:04:02.818355, 503.0025, 4171
18:04:02.827114, 503.005, 4161
18:04:02.827143, 503.0075, 4056
18:04:02.827159, 503.01, 4165
18:04:02.827174, 503.0125, 4173
18:04:02.849186, 503.015, 4160
18:04:02.849250, 503.0175, 4142
18:04:02.849273, 503.02, 4153
18:04:02.849293, 503.0225, 4147
18:04:02.852753, 503.025, 4116
18:04:02.852787, 503.0275, 4148
18:04:02.852807, 503.03, 4153
18:04:02.852826, 503.0325, 4132
18:04:02.862660, 503.035, 4133
18:04:02.862725, 503.0375, 4170
18:04:02.862753, 503.04, 4155
18:04:02.862777, 503.0425, 4077
18:04:02.884825, 503.045, 4170
18:04:02.884894, 503.0475, 4180
18:04:02.884920, 503.05, 4138
18:04:02.884980, 503.0525, 4138
18:04:02.888341, 503.055, 4153
18:04:02.888459, 503.0575, 4163
18:04:02.888518, 503.06, 4095
18:04:02.888562, 503.0625, 4168
18:04:02.896976, 503.065, 4180
18:04:02.897032, 503.0675, 4157
18:04:02.897051, 503.07, 4149
18:04:02.897069, 503.0725, 4195
18:04:02.897088, 503.075, 4191
18:04:02.916579, 503.0775, 4079
18:04:02.916639, 503.08, 4199
18:04:02.916660, 503.0825, 4163
18:04:02.916680, 503.085, 4176
18:04:02.917016, 503.0875, 4184
18:04:02.917037, 503.09, 4205
18:04:02.917052, 503.0925, 4197
18:04:02.917066, 503.095, 4096
18:04:02.923018, 503.0975, 4168
18:04:02.923047, 503.1, 4153
18:04:02.923072, 503.1025, 4143
18:04:02.923095, 503.105, 4139
18:04:02.948130, 503.1075, 4172
18:04:02.948300, 503.11, 4161
18:04:02.948344, 503.1125, 4081
18:04:02.948377, 503.115, 4129
18:04:02.949211, 503.1175, 4129
18:04:02.949279, 503.12, 4149
18:04:02.949307, 503.1225, 4136
18:04:02.949330, 503.125, 4155
18:04:02.958359, 503.1275, 4149
18:04:02.958462, 503.13, 4150
18:04:02.958518, 503.1325, 4190
18:04:02.958568, 503.135, 4201
18:04:02.983611, 503.1375, 4201
18:04:02.983748, 503.14, 4215
18:04:02.983782, 503.1425, 4218
18:04:02.983951, 503.145, 4234
18:04:02.984628, 503.1475, 4129
18:04:02.984679, 503.15, 4221
18:04:02.984721, 503.1525, 4209
18:04:02.984755, 503.155, 4227
18:04:02.984780, 503.1575, 4213
18:04:02.985177, 503.16, 4228
18:04:02.985206, 503.1625, 4222
18:04:02.985228, 503.165, 4133
18:04:02.985250, 503.1675, 4227
18:04:02.993293, 503.17, 4226
18:04:02.993455, 503.1725, 4223
18:04:02.993522, 503.175, 4193
18:04:02.993576, 503.1775, 4196
18:04:03.027029, 503.18, 4201
18:04:03.027106, 503.1825, 4113
18:04:03.027128, 503.185, 4208
18:04:03.027158, 503.1875, 4186
18:04:03.027495, 503.19, 4191
18:04:03.027518, 503.1925, 4202
18:04:03.027532, 503.195, 4219
18:04:03.027545, 503.1975, 4224
18:04:03.028060, 503.2, 4250
18:04:03.028126, 503.2025, 4366
18:04:03.028181, 503.205, 4431
18:04:03.028224, 503.2075, 4406
18:04:03.059006, 503.21, 4470
18:04:03.059068, 503.2125, 4505
18:04:03.059090, 503.215, 4417
18:04:03.059151, 503.2175, 4168
18:04:03.059457, 503.22, 4054
18:04:03.059481, 503.2225, 3797
18:04:03.059496, 503.225, 3451
18:04:03.059510, 503.2275, 3158
18:04:03.059761, 503.23, 2736
18:04:03.059780, 503.2325, 2220
18:04:03.059794, 503.235, 1719
18:04:03.059809, 503.2375, 1606
18:04:03.063899, 503.24, 1651
18:04:03.063944, 503.2425, 1934
18:04:03.064003, 503.245, 2643
18:04:03.064091, 503.2475, 3639
18:04:03.093518, 503.25, 4475
18:04:03.093564, 503.2525, 4795
18:04:03.093587, 503.255, 5062
18:04:03.093606, 503.2575, 5059
18:04:03.093950, 503.26, 4891
18:04:03.093994, 503.2625, 4715
18:04:03.094018, 503.265, 4631
18:04:03.094040, 503.2675, 4596
18:04:03.098075, 503.27, 4493
18:04:03.098149, 503.2725, 4535
18:04:03.098173, 503.275, 4499
18:04:03.098193, 503.2775, 4513
18:04:03.098212, 503.28, 4533
18:04:03.115635, 503.2825, 4530
18:04:03.115769, 503.285, 4542
18:04:03.115815, 503.2875, 4443
18:04:03.115851, 503.29, 4545
18:04:03.116598, 503.2925, 4517
18:04:03.116655, 503.295, 4502
18:04:03.116684, 503.2975, 4488
18:04:03.116710, 503.3, 4493
18:04:03.124301, 503.3025, 4500
18:04:03.124375, 503.305, 4387
18:04:03.124413, 503.3075, 4448
18:04:03.124448, 503.31, 4457
18:04:03.149613, 503.3125, 4424
18:04:03.149699, 503.315, 4418
18:04:03.149724, 503.3175, 4411
18:04:03.149744, 503.32, 4425
18:04:03.150445, 503.3225, 4359
18:04:03.150484, 503.325, 4406
18:04:03.150501, 503.3275, 4377
18:04:03.150517, 503.33, 4363
18:04:03.159576, 503.3325, 4385
18:04:03.159669, 503.335, 4385
18:04:03.159725, 503.3375, 4362
18:04:03.159777, 503.34, 4260
18:04:03.186085, 503.3425, 4343
18:04:03.186147, 503.345, 4356
18:04:03.186169, 503.3475, 4337
18:04:03.186188, 503.35, 4342
18:04:03.186504, 503.3525, 4349
18:04:03.186524, 503.355, 4325
18:04:03.186539, 503.3575, 4213
18:04:03.186552, 503.36, 4289
18:04:03.186793, 503.3625, 4284
18:04:03.186811, 503.365, 4277
18:04:03.186825, 503.3675, 4275
18:04:03.186839, 503.37, 4286
18:04:03.220506, 503.3725, 4259
18:04:03.220563, 503.375, 4176
18:04:03.220585, 503.3775, 4256
18:04:03.220606, 503.38, 4263
18:04:03.220626, 503.3825, 4254
18:04:03.220966, 503.385, 4235
18:04:03.220990, 503.3875, 4238
18:04:03.221005, 503.39, 4232
18:04:03.221021, 503.3925, 4163
18:04:03.221278, 503.395, 4227
18:04:03.221297, 503.3975, 4218
18:04:03.221312, 503.4, 4228
18:04:03.221327, 503.4025, 4177
18:04:03.229455, 503.405, 4240
18:04:03.229533, 503.4075, 4244
18:04:03.229573, 503.41, 4114
18:04:03.229611, 503.4125, 4217
18:04:03.253620, 503.415, 4215
18:04:03.253683, 503.4175, 4222
18:04:03.253738, 503.42, 4212
18:04:03.253775, 503.4225, 4211
18:04:03.255977, 503.425, 4209
18:04:03.256013, 503.4275, 4119
18:04:03.256044, 503.43, 4225
18:04:03.256070, 503.4325, 4212
18:04:03.265890, 503.435, 4208
18:04:03.265936, 503.4375, 4199
18:04:03.265957, 503.44, 4191
18:04:03.265987, 503.4425, 4165
18:04:03.285662, 503.445, 4066
18:04:03.285726, 503.4475, 4202
18:04:03.285748, 503.45, 4166
18:04:03.285768, 503.4525, 4167
18:04:03.286138, 503.455, 4157
18:04:03.286161, 503.4575, 4172
18:04:03.286176, 503.46, 4165
18:04:03.286191, 503.4625, 4098
18:04:03.286205, 503.465, 4174
18:04:03.290508, 503.4675, 4184
18:04:03.290553, 503.47, 4160
18:04:03.290574, 503.4725, 4160
18:04:03.290600, 503.475, 4192
18:04:03.299528, 503.4775, 4191
18:04:03.299619, 503.48, 4105
18:04:03.299654, 503.4825, 4191
18:04:03.299683, 503.485, 4166
18:04:03.318419, 503.4875, 4167
18:04:03.318465, 503.49, 4176
18:04:03.318488, 503.4925, 4189
18:04:03.318507, 503.495, 4185
18:04:03.325766, 503.4975, 4124
18:04:03.325876, 503.5, 4152
18:04:03.325919, 503.5025, 4142
18:04:03.325957, 503.505, 4147
18:04:03.349700, 503.5075, 4133
18:04:03.349796, 503.51, 4160
18:04:03.349820, 503.5125, 4130
18:04:03.349841, 503.515, 4041
18:04:03.350263, 503.5175, 4169
18:04:03.350307, 503.52, 4153
18:04:03.350323, 503.5225, 4145
18:04:03.350339, 503.525, 4117
18:04:03.360847, 503.5275, 4139
18:04:03.360951, 503.53, 4106
18:04:03.361008, 503.5325, 4024
18:04:03.361059, 503.535, 4112
18:04:03.387957, 503.5375, 4119
18:04:03.388050, 503.54, 4120
18:04:03.388086, 503.5425, 4117
18:04:03.388115, 503.545, 4135
18:04:03.388143, 503.5475, 4170
18:04:03.388723, 503.55, 4085
18:04:03.388767, 503.5525, 4176
18:04:03.388799, 503.555, 4158
18:04:03.388829, 503.5575, 4165
18:04:03.389445, 503.56, 4178
18:04:03.389510, 503.5625, 4190
18:04:03.389560, 503.565, 4212
18:04:03.389609, 503.5675, 4111
18:04:03.395819, 503.57, 4210
18:04:03.395885, 503.5725, 4202
18:04:03.395926, 503.575, 4211
18:04:03.395965, 503.5775, 4242
18:04:03.422224, 503.58, 4254
18:04:03.422320, 503.5825, 4241
18:04:03.422361, 503.585, 4141
18:04:03.422394, 503.5875, 4258
18:04:03.423031, 503.59, 4247
18:04:03.423079, 503.5925, 4242
18:04:03.423113, 503.595, 4239
18:04:03.423144, 503.5975, 4285
18:04:03.430406, 503.6, 4260
18:04:03.430455, 503.6025, 4166
18:04:03.430485, 503.605, 4274
18:04:03.430512, 503.6075, 4300
18:04:03.454951, 503.61, 4296
18:04:03.455055, 503.6125, 4280
18:04:03.455115, 503.615, 4280
18:04:03.455252, 503.6175, 4258
18:04:03.455904, 503.62, 4164
18:04:03.455952, 503.6225, 4259
18:04:03.455985, 503.625, 4253
18:04:03.456015, 503.6275, 4231
18:04:03.456044, 503.63, 4215
18:04:03.456795, 503.6325, 4243
18:04:03.456838, 503.635, 4230
18:04:03.456869, 503.6375, 4153
18:04:03.456898, 503.64, 4226
18:04:03.465957, 503.6425, 4220
18:04:03.466007, 503.645, 4191
18:04:03.466029, 503.6475, 4218
18:04:03.466098, 503.65, 4240
18:04:03.485260, 503.6525, 4238
18:04:03.485360, 503.655, 4124
18:04:03.485385, 503.6575, 4226
18:04:03.485407, 503.66, 4242
18:04:03.491565, 503.6625, 4215
18:04:03.491603, 503.665, 4215
18:04:03.491621, 503.6675, 4208
18:04:03.491637, 503.67, 4209
18:04:03.500876, 503.6725, 4115
18:04:03.500950, 503.675, 4222
18:04:03.500971, 503.6775, 4205
18:04:03.500987, 503.68, 4203
18:04:03.522283, 503.6825, 4188
18:04:03.522375, 503.685, 4206
18:04:03.522410, 503.6875, 4217
18:04:03.522439, 503.69, 4131
18:04:03.522982, 503.6925, 4199
18:04:03.523004, 503.695, 4195
18:04:03.523019, 503.6975, 4169
18:04:03.523033, 503.7, 4173
18:04:03.527226, 503.7025, 4197
18:04:03.527310, 503.705, 4164
18:04:03.527365, 503.7075, 4084
18:04:03.527416, 503.71, 4184
18:04:03.527465, 503.7125, 4166
18:04:03.556104, 503.715, 4149
18:04:03.556208, 503.7175, 4136
18:04:03.556263, 503.72, 4129
18:04:03.556310, 503.7225, 4137
18:04:03.557173, 503.725, 4095
18:04:03.557226, 503.7275, 4149
18:04:03.557270, 503.73, 4157
18:04:03.557312, 503.7325, 4165
18:04:03.561727, 503.735, 4141
18:04:03.561763, 503.7375, 4156
18:04:03.561790, 503.74, 4173
18:04:03.561816, 503.7425, 4067
18:04:03.584743, 503.745, 4200
18:04:03.584847, 503.7475, 4183
18:04:03.584892, 503.75, 4190
18:04:03.584932, 503.7525, 4172
18:04:03.585538, 503.755, 4182
18:04:03.585588, 503.7575, 4162
18:04:03.585621, 503.76, 4081
18:04:03.585655, 503.7625, 4178
18:04:03.588054, 503.765, 4172
18:04:03.588148, 503.7675, 4181
18:04:03.588198, 503.77, 4175
18:04:03.588239, 503.7725, 4186
18:04:03.618813, 503.775, 4175
18:04:03.618929, 503.7775, 4054
18:04:03.618953, 503.78, 4162
18:04:03.618972, 503.7825, 4162
18:04:03.619386, 503.785, 4153
18:04:03.619420, 503.7875, 4161
18:04:03.619436, 503.79, 4168
18:04:03.619451, 503.7925, 4167
18:04:03.619465, 503.795, 4051
18:04:03.622782, 503.7975, 4167
18:04:03.622811, 503.8, 4191
18:04:03.622827, 503.8025, 4203
18:04:03.622848, 503.805, 4195
18:04:03.631549, 503.8075, 4201
18:04:03.631594, 503.81, 4201
18:04:03.631610, 503.8125, 4125
18:04:03.631625, 503.815, 4190
18:04:03.651348, 503.8175, 4195
18:04:03.651413, 503.82, 4162
18:04:03.651436, 503.8225, 4159
18:04:03.651456, 503.825, 4175
18:04:03.657792, 503.8275, 4168
18:04:03.657854, 503.83, 4111
18:04:03.657872, 503.8325, 4195
18:04:03.657887, 503.835, 4184
18:04:03.667382, 503.8375, 4168
18:04:03.667444, 503.84, 4173
18:04:03.667472, 503.8425, 4173
18:04:03.667500, 503.845, 4176
18:04:03.692213, 503.8475, 4075
18:04:03.692307, 503.85, 4157
18:04:03.692332, 503.8525, 4168
18:04:03.692352, 503.855, 4174
18:04:03.692372, 503.8575, 4178
18:04:03.692702, 503.86, 4174
18:04:03.692724, 503.8625, 4150
18:04:03.692738, 503.865, 4094
18:04:03.692752, 503.8675, 4174
18:04:03.692994, 503.87, 4142
18:04:03.693012, 503.8725, 4137
18:04:03.693026, 503.875, 4135
18:04:03.693040, 503.8775, 4151
18:04:03.701819, 503.88, 4150
18:04:03.701882, 503.8825, 4052
18:04:03.701905, 503.885, 4160
18:04:03.702563, 503.8875, 4168
18:04:03.732986, 503.89, 4147
18:04:03.733045, 503.8925, 4164
18:04:03.733064, 503.895, 4175
18:04:03.733127, 503.8975, 4182
18:04:03.733426, 503.9, 4141
18:04:03.733463, 503.9025, 4190
18:04:03.733481, 503.905, 4173
18:04:03.733497, 503.9075, 4177
18:04:03.747914, 503.91, 4176
18:04:03.747980, 503.9125, 4189
18:04:03.748011, 503.915, 4213
18:04:03.748040, 503.9175, 4110
18:04:03.748518, 503.92, 4200
18:04:03.748551, 503.9225, 4197
18:04:03.748575, 503.925, 4205
18:04:03.748596, 503.9275, 4218
18:04:03.769346, 503.93, 4225
18:04:03.769478, 503.9325, 4194
18:04:03.769526, 503.935, 4110
18:04:03.769566, 503.9375, 4191
18:04:03.769627, 503.94, 4183
18:04:03.772043, 503.9425, 4172
18:04:03.772110, 503.945, 4170
18:04:03.772155, 503.9475, 4172
18:04:03.772198, 503.95, 4188
18:04:03.780799, 503.9525, 4158
18:04:03.780861, 503.955, 4168
18:04:03.780903, 503.9575, 4159
18:04:03.780944, 503.96, 4157
18:04:03.802462, 503.9625, 4150
18:04:03.802557, 503.965, 4154
18:04:03.802590, 503.9675, 4143
18:04:03.802619, 503.97, 4086
18:04:03.803325, 503.9725, 4196
18:04:03.803386, 503.975, 4194
18:04:03.803413, 503.9775, 4185
18:04:03.803436, 503.98, 4187
18:04:03.806671, 503.9825, 4189
18:04:03.806712, 503.985, 4200
18:04:03.806736, 503.9875, 4102
18:04:03.806759, 503.99, 4204
18:04:03.815371, 503.9925, 4197
18:04:03.815422, 503.995, 4191
18:04:03.815453, 503.9975, 4188
18:04:03.815481, 504.0, 4192
18:04:03.836060, 504.0025, 4201
18:04:03.836166, 504.005, 4089
18:04:03.836197, 504.0075, 4189
18:04:03.836232, 504.01, 4171
18:04:03.842034, 504.0125, 4162
18:04:03.842129, 504.015, 4129
18:04:03.842175, 504.0175, 4165
18:04:03.842215, 504.02, 4165
18:04:03.842257, 504.0225, 4059
18:04:03.850798, 504.025, 4165
18:04:03.850871, 504.0275, 4197
18:04:03.850895, 504.03, 4182
18:04:03.850914, 504.0325, 4180
18:04:03.869481, 504.035, 4187
18:04:03.869575, 504.0375, 4191
18:04:03.869605, 504.04, 4075
18:04:03.869631, 504.0425, 4163
18:04:03.870155, 504.045, 4183
18:04:03.870201, 504.0475, 4175
18:04:03.870222, 504.05, 4169
18:04:03.870244, 504.0525, 4167
18:04:03.885645, 504.055, 4155
18:04:03.886364, 504.0575, 4102
18:04:03.886467, 504.06, 4177
18:04:03.886652, 504.0625, 4184
18:04:03.904489, 504.065, 4201
18:04:03.904624, 504.0675, 4200
18:04:03.904657, 504.07, 4204
18:04:03.904725, 504.0725, 4210
18:04:03.905239, 504.075, 4081
18:04:03.905298, 504.0775, 4178
18:04:03.905325, 504.08, 4163
18:04:03.905348, 504.0825, 4142
18:04:03.911523, 504.085, 4151
18:04:03.911552, 504.0875, 4185
18:04:03.911568, 504.09, 4178
18:04:03.911583, 504.0925, 4081
18:04:03.938687, 504.095, 4134
18:04:03.938762, 504.0975, 4134
18:04:03.938790, 504.1, 4140
18:04:03.938828, 504.1025, 4143
18:04:03.939448, 504.105, 4165
18:04:03.939493, 504.1075, 4135
18:04:03.939519, 504.11, 4046
18:04:03.939543, 504.1125, 4137
18:04:03.939977, 504.115, 4154
18:04:03.940011, 504.1175, 4161
18:04:03.940036, 504.12, 4162
18:04:03.940061, 504.1225, 4174
18:04:03.974354, 504.125, 4161
18:04:03.974466, 504.1275, 4094
18:04:03.974492, 504.13, 4194
18:04:03.974514, 504.1325, 4196
18:04:03.974534, 504.135, 4187
18:04:03.975307, 504.1375, 4197
18:04:03.975358, 504.14, 4183
18:04:03.975392, 504.1425, 4176
18:04:03.975424, 504.145, 4103
18:04:03.976547, 504.1475, 4189
18:04:03.976590, 504.15, 4173
18:04:03.976621, 504.1525, 4157
18:04:03.976652, 504.155, 4163
18:04:03.981508, 504.1575, 4173
18:04:03.981534, 504.16, 4163
18:04:03.981549, 504.1625, 4014
18:04:03.981562, 504.165, 4169
18:04:04.007674, 504.1675, 4164
18:04:04.007733, 504.17, 4166
18:04:04.007755, 504.1725, 4155
18:04:04.007773, 504.175, 4191
18:04:04.008118, 504.1775, 4182
18:04:04.008140, 504.18, 4067
18:04:04.008155, 504.1825, 4188
18:04:04.008169, 504.185, 4168
18:04:04.016518, 504.1875, 4185
18:04:04.016544, 504.19, 4178
18:04:04.016560, 504.1925, 4191
18:04:04.016575, 504.195, 4199
18:04:04.036990, 504.1975, 4153
18:04:04.037094, 504.2, 4349
18:04:04.037128, 504.2025, 4402
18:04:04.037155, 504.205, 4425
18:04:04.037182, 504.2075, 4451
18:04:04.037711, 504.21, 4500
18:04:04.037772, 504.2125, 4422
18:04:04.037794, 504.215, 4170
18:04:04.037814, 504.2175, 4028
18:04:04.043022, 504.22, 3784
18:04:04.043074, 504.2225, 3434
18:04:04.043104, 504.225, 3144
18:04:04.043131, 504.2275, 2718
18:04:04.052443, 504.23, 2188
18:04:04.052492, 504.2325, 1664
18:04:04.052514, 504.235, 1517
18:04:04.052537, 504.2375, 1532
18:04:04.072346, 504.24, 1788
18:04:04.072410, 504.2425, 2468
18:04:04.072433, 504.245, 3464
18:04:04.072464, 504.2475, 4418
18:04:04.077790, 504.25, 4842
18:04:04.077821, 504.2525, 5092
18:04:04.077838, 504.255, 5062
18:04:04.077854, 504.2575, 4930
18:04:04.087266, 504.26, 4755
18:04:04.087335, 504.2625, 4644
18:04:04.087364, 504.265, 4570
18:04:04.087392, 504.2675, 4445
18:04:04.107946, 504.27, 4528
18:04:04.108005, 504.2725, 4490
18:04:04.108046, 504.275, 4512
18:04:04.108078, 504.2775, 4506
18:04:04.108599, 504.28, 4544
18:04:04.108632, 504.2825, 4530
18:04:04.108654, 504.285, 4439
18:04:04.108675, 504.2875, 4523
18:04:04.141607, 504.29, 4498
18:04:04.141702, 504.2925, 4506
18:04:04.141741, 504.295, 4463
18:04:04.141774, 504.2975, 4492
18:04:04.141834, 504.3, 4475
18:04:04.142379, 504.3025, 4396
18:04:04.142416, 504.305, 4397
18:04:04.142443, 504.3075, 4407
18:04:04.142469, 504.31, 4386
18:04:04.142928, 504.3125, 4397
18:04:04.142963, 504.315, 4398
18:04:04.142989, 504.3175, 4403
18:04:04.143014, 504.32, 4283
18:04:04.147645, 504.3225, 4375
18:04:04.147674, 504.325, 4350
18:04:04.147690, 504.3275, 4352
18:04:04.147705, 504.33, 4346
18:04:04.174536, 504.3325, 4348
18:04:04.174621, 504.335, 4354
18:04:04.174656, 504.3375, 4261
18:04:04.174685, 504.34, 4354
18:04:04.175485, 504.3425, 4364
18:04:04.175551, 504.345, 4341
18:04:04.175596, 504.3475, 4313
18:04:04.175637, 504.35, 4322
18:04:04.183131, 504.3525, 4313
18:04:04.183172, 504.355, 4205
18:04:04.183188, 504.3575, 4315
18:04:04.183202, 504.36, 4290
18:04:04.183215, 504.3625, 4291
18:04:04.204575, 504.365, 4274
18:04:04.204644, 504.3675, 4308
18:04:04.204666, 504.37, 4287
18:04:04.204685, 504.3725, 4207
18:04:04.211535, 504.375, 4290
18:04:04.211645, 504.3775, 4303
18:04:04.211693, 504.38, 4255
18:04:04.211735, 504.3825, 4258
18:04:04.213042, 504.385, 4261
18:04:04.213103, 504.3875, 4241
18:04:04.213146, 504.39, 4204
18:04:04.213187, 504.3925, 4224
18:04:04.218097, 504.395, 4232
18:04:04.218160, 504.3975, 4205
18:04:04.218203, 504.4, 4184
18:04:04.218244, 504.4025, 4209
18:04:04.238329, 504.405, 4214
18:04:04.238429, 504.4075, 4117
18:04:04.238452, 504.41, 4246
18:04:04.238505, 504.4125, 4234
18:04:04.243913, 504.415, 4221
18:04:04.243951, 504.4175, 4218
18:04:04.243967, 504.42, 4225
18:04:04.243982, 504.4225, 4233
18:04:04.253365, 504.425, 4141
18:04:04.253427, 504.4275, 4223
18:04:04.253449, 504.43, 4204
18:04:04.253480, 504.4325, 4207
18:04:04.275955, 504.435, 4202
18:04:04.276093, 504.4375, 4214
18:04:04.276136, 504.44, 4242
18:04:04.276168, 504.4425, 4139
18:04:04.276696, 504.445, 4241
18:04:04.276733, 504.4475, 4247
18:04:04.276760, 504.45, 4249
18:04:04.276785, 504.4525, 4215
18:04:04.276810, 504.455, 4253
18:04:04.279052, 504.4575, 4237
18:04:04.279074, 504.46, 4128
18:04:04.279089, 504.4625, 4215
18:04:04.279104, 504.465, 4233
18:04:04.308551, 504.4675, 4240
18:04:04.308661, 504.47, 4259
18:04:04.308711, 504.4725, 4220
18:04:04.308823, 504.475, 4239
18:04:04.309463, 504.4775, 4198
18:04:04.309518, 504.48, 4246
18:04:04.309548, 504.4825, 4230
18:04:04.309609, 504.485, 4244
18:04:04.314361, 504.4875, 4214
18:04:04.314441, 504.49, 4230
18:04:04.314485, 504.4925, 4237
18:04:04.314525, 504.495, 4156
18:04:04.346913, 504.4975, 4240
18:04:04.347008, 504.5, 4222
18:04:04.347057, 504.5025, 4210
18:04:04.347125, 504.505, 4203
18:04:04.347171, 504.5075, 4194
18:04:04.347681, 504.51, 4170
18:04:04.347717, 504.5125, 4097
18:04:04.347742, 504.515, 4173
18:04:04.347766, 504.5175, 4174
18:04:04.349195, 504.52, 4143
18:04:04.349228, 504.5225, 4124
18:04:04.349253, 504.525, 4131
18:04:04.349276, 504.5275, 4134
18:04:04.376091, 504.53, 4060
18:04:04.376186, 504.5325, 4116
18:04:04.376225, 504.535, 4117
18:04:04.376259, 504.5375, 4117
18:04:04.377706, 504.54, 4099
18:04:04.377755, 504.5425, 4118
18:04:04.377789, 504.545, 4115
18:04:04.377820, 504.5475, 4044
18:04:04.378956, 504.55, 4145
18:04:04.378998, 504.5525, 4151
18:04:04.379030, 504.555, 4155
18:04:04.379061, 504.5575, 4154
18:04:04.384229, 504.56, 4176
18:04:04.384277, 504.5625, 4184
18:04:04.384311, 504.565, 4045
18:04:04.384342, 504.5675, 4196
18:04:04.407326, 504.57, 4190
18:04:04.407455, 504.5725, 4188
18:04:04.407520, 504.575, 4195
18:04:04.407584, 504.5775, 4190
18:04:04.410525, 504.58, 4195
18:04:04.410587, 504.5825, 4082
18:04:04.410629, 504.585, 4193
18:04:04.410667, 504.5875, 4193
18:04:04.419399, 504.59, 4185
18:04:04.419462, 504.5925, 4190
18:04:04.419510, 504.595, 4206
18:04:04.419564, 504.5975, 4221
18:04:04.419638, 504.6, 4125
18:04:04.439925, 504.6025, 4202
18:04:04.440048, 504.605, 4206
18:04:04.440083, 504.6075, 4207
18:04:04.440142, 504.61, 4187
18:04:04.440619, 504.6125, 4204
18:04:04.440660, 504.615, 4203
18:04:04.440682, 504.6175, 4109
18:04:04.440702, 504.62, 4215
18:04:04.445605, 504.6225, 4214
18:04:04.445650, 504.625, 4199
18:04:04.445675, 504.6275, 4185
18:04:04.445699, 504.63, 4208
18:04:04.476316, 504.6325, 4203
18:04:04.476382, 504.635, 4127
18:04:04.476410, 504.6375, 4197
18:04:04.476451, 504.64, 4227
18:04:04.476895, 504.6425, 4206
18:04:04.476923, 504.645, 4213
18:04:04.476944, 504.6475, 4224
18:04:04.476963, 504.65, 4204
18:04:04.480922, 504.6525, 4207
18:04:04.480988, 504.655, 4243
18:04:04.481035, 504.6575, 4222
18:04:04.481079, 504.66, 4213
18:04:04.505946, 504.6625, 4185
18:04:04.506053, 504.665, 4247
18:04:04.506088, 504.6675, 4228
18:04:04.506115, 504.67, 4129
18:04:04.508850, 504.6725, 4238
18:04:04.508905, 504.675, 4217
18:04:04.508930, 504.6775, 4219
18:04:04.508954, 504.68, 4189
18:04:04.510061, 504.6825, 4208
18:04:04.510091, 504.685, 4169
18:04:04.510115, 504.6875, 4163
18:04:04.510137, 504.69, 4186
18:04:04.510159, 504.6925, 4193
18:04:04.539419, 504.695, 4191
18:04:04.539538, 504.6975, 4144
18:04:04.539568, 504.7, 4201
18:04:04.539595, 504.7025, 4181
18:04:04.540136, 504.705, 4134
18:04:04.540195, 504.7075, 4177
18:04:04.540219, 504.71, 4182
18:04:04.540240, 504.7125, 4172
18:04:04.541649, 504.715, 4162
18:04:04.541696, 504.7175, 4197
18:04:04.541718, 504.72, 4179
18:04:04.541738, 504.7225, 4084
18:04:04.550256, 504.725, 4181
18:04:04.550300, 504.7275, 4188
18:04:04.550336, 504.73, 4172
18:04:04.550367, 504.7325, 4183
18:04:04.576794, 504.735, 4173
18:04:04.576886, 504.7375, 4193
18:04:04.576934, 504.74, 4115
18:04:04.576973, 504.7425, 4183
18:04:04.577560, 504.745, 4183
18:04:04.577598, 504.7475, 4187
18:04:04.577639, 504.75, 4176
18:04:04.577687, 504.7525, 4187
18:04:04.586237, 504.755, 4197
18:04:04.586340, 504.7575, 4089
18:04:04.586390, 504.76, 4185
18:04:04.586436, 504.7625, 4170
18:04:04.609388, 504.765, 4183
18:04:04.609484, 504.7675, 4163
18:04:04.609525, 504.77, 4180
18:04:04.609557, 504.7725, 4172
18:04:04.609611, 504.775, 4045
18:04:04.610148, 504.7775, 4178
18:04:04.610183, 504.78, 4178
18:04:04.610207, 504.7825, 4179
18:04:04.610277, 504.785, 4163
18:04:04.611837, 504.7875, 4175
18:04:04.611880, 504.79, 4159
18:04:04.611911, 504.7925, 4092
18:04:04.611940, 504.795, 4155
18:04:04.621019, 504.7975, 4151
18:04:04.621104, 504.8, 4146
18:04:04.621129, 504.8025, 4148
18:04:04.621149, 504.805, 4150
18:04:04.644665, 504.8075, 4145
18:04:04.644751, 504.81, 4076
18:04:04.644832, 504.8125, 4147
18:04:04.644896, 504.815, 4148
18:04:04.673291, 504.8175, 4151
18:04:04.673402, 504.82, 4139
18:04:04.673436, 504.8225, 4131
18:04:04.673465, 504.825, 4147
18:04:04.674047, 504.8275, 4063
18:04:04.674108, 504.83, 4167
18:04:04.674133, 504.8325, 4159
18:04:04.674157, 504.835, 4149
18:04:04.674556, 504.8375, 4149
18:04:04.674597, 504.84, 4146
18:04:04.674620, 504.8425, 4148
18:04:04.674642, 504.845, 4002
18:04:04.674664, 504.8475, 4155
18:04:04.675055, 504.85, 4136
18:04:04.675083, 504.8525, 4124
18:04:04.675099, 504.855, 4140
18:04:04.675116, 504.8575, 4137
18:04:04.706839, 504.86, 4123
18:04:04.706974, 504.8625, 4056
18:04:04.707011, 504.865, 4164
18:04:04.707060, 504.8675, 4154
18:04:04.710072, 504.87, 4150
18:04:04.710126, 504.8725, 4138
18:04:04.710151, 504.875, 4160
18:04:04.710175, 504.8775, 4138
18:04:04.711184, 504.88, 4048
18:04:04.711206, 504.8825, 4144
18:04:04.711220, 504.885, 4156
18:04:04.711235, 504.8875, 4146
18:04:04.743977, 504.89, 4159
18:04:04.744127, 504.8925, 4150
18:04:04.744177, 504.895, 4148
18:04:04.744209, 504.8975, 4026
18:04:04.744724, 504.9, 4157
18:04:04.744763, 504.9025, 4166
18:04:04.744789, 504.905, 4179
18:04:04.744824, 504.9075, 4153
18:04:04.745282, 504.91, 4170
18:04:04.745316, 504.9125, 4162
18:04:04.745342, 504.915, 4018
18:04:04.745367, 504.9175, 4176
18:04:04.751990, 504.92, 4183
18:04:04.752060, 504.9225, 4166
18:04:04.752104, 504.925, 4057
18:04:04.752144, 504.9275, 4197
18:04:04.778318, 504.93, 4195
18:04:04.778410, 504.9325, 4178
18:04:04.778446, 504.935, 4188
18:04:04.778475, 504.9375, 4175
18:04:04.778540, 504.94, 4196
18:04:04.779066, 504.9425, 4176
18:04:04.779109, 504.945, 4183
18:04:04.779140, 504.9475, 4162
18:04:04.779170, 504.95, 4074
18:04:04.779692, 504.9525, 4175
18:04:04.779730, 504.955, 4170
18:04:04.779760, 504.9575, 4165
18:04:04.779788, 504.96, 4150
18:04:04.786560, 504.9625, 4171
18:04:04.786600, 504.965, 4156
18:04:04.786616, 504.9675, 4077
18:04:04.786632, 504.97, 4170
18:04:04.809905, 504.9725, 4156
18:04:04.810042, 504.975, 4140
18:04:04.810120, 504.9775, 4158
18:04:04.810176, 504.98, 4160
18:04:04.841078, 504.9825, 4162
18:04:04.841170, 504.985, 4079
18:04:04.841209, 504.9875, 4173
18:04:04.841293, 504.99, 4161
18:04:04.841819, 504.9925, 4160
18:04:04.841870, 504.995, 4168
18:04:04.841899, 504.9975, 4191
18:04:04.841926, 505.0, 4193
18:04:04.842352, 505.0025, 4086
18:04:04.842398, 505.005, 4200
18:04:04.842425, 505.0075, 4176
18:04:04.842454, 505.01, 4175
18:04:04.843035, 505.0125, 4145
18:04:04.843077, 505.015, 4174
18:04:04.843104, 505.0175, 4189
18:04:04.843129, 505.02, 4098
18:04:04.843155, 505.0225, 4194
18:04:04.847789, 505.025, 4191
18:04:04.847823, 505.0275, 4186
18:04:04.847846, 505.03, 4163
18:04:04.847869, 505.0325, 4177
18:04:04.875560, 505.035, 4148
18:04:04.875652, 505.0375, 4087
18:04:04.875677, 505.04, 4177
18:04:04.875699, 505.0425, 4175
18:04:04.876148, 505.045, 4164
18:04:04.876178, 505.0475, 4154
18:04:04.876194, 505.05, 4180
18:04:04.876208, 505.0525, 4176
18:04:04.883038, 505.055, 4140
18:04:04.883101, 505.0575, 4189
18:04:04.883133, 505.06, 4183
18:04:04.883162, 505.0625, 4167
18:04:04.893343, 505.065, 4175
18:04:04.893401, 505.0675, 4173
18:04:04.893423, 505.07, 4171
18:04:04.893443, 505.0725, 4082
18:04:04.914783, 505.075, 4180
18:04:04.914838, 505.0775, 4163
18:04:04.914881, 505.08, 4173
18:04:04.914901, 505.0825, 4157
18:04:04.915231, 505.085, 4166
18:04:04.915255, 505.0875, 4167
18:04:04.915270, 505.09, 4069
18:04:04.915285, 505.0925, 4172
18:04:04.917777, 505.095, 4172
18:04:04.917808, 505.0975, 4164
18:04:04.917828, 505.1, 4136
18:04:04.917844, 505.1025, 4167
18:04:04.956228, 505.105, 4177
18:04:04.956282, 505.1075, 4079
18:04:04.956301, 505.11, 4178
18:04:04.956331, 505.1125, 4188
18:04:04.957090, 505.115, 4170
18:04:04.957129, 505.1175, 4173
18:04:04.957149, 505.12, 4182
18:04:04.957167, 505.1225, 4175
18:04:04.958475, 505.125, 4056
18:04:04.958506, 505.1275, 4194
18:04:04.958567, 505.13, 4175
18:04:04.958603, 505.1325, 4158
18:04:04.982802, 505.135, 4142
18:04:04.982877, 505.1375, 4167
18:04:04.982959, 505.14, 4142
18:04:04.982989, 505.1425, 4079
18:04:04.983033, 505.145, 4181
18:04:04.984081, 505.1475, 4182
18:04:04.984219, 505.15, 4135
18:04:04.984241, 505.1525, 4162
18:04:04.984273, 505.155, 4190
18:04:04.985359, 505.1575, 4178
18:04:04.985383, 505.16, 4065
18:04:04.985424, 505.1625, 4179
18:04:04.985442, 505.165, 4149
18:04:05.010416, 505.1675, 4160
18:04:05.010482, 505.17, 4165
18:04:05.010518, 505.1725, 4173
18:04:05.010537, 505.175, 4187
18:04:05.011230, 505.1775, 4121
18:04:05.011315, 505.18, 4169
18:04:05.011364, 505.1825, 4137
18:04:05.011397, 505.185, 4135
18:04:05.037776, 505.1875, 4127
18:04:05.037818, 505.19, 4144
18:04:05.037881, 505.1925, 4146
18:04:05.037903, 505.195, 4018
18:04:05.038822, 505.1975, 4158
18:04:05.038870, 505.2, 4168
18:04:05.038931, 505.2025, 4161
18:04:05.038952, 505.205, 4127
18:04:05.040349, 505.2075, 4124
18:04:05.040412, 505.21, 4112
18:04:05.040446, 505.2125, 4022
18:04:05.040477, 505.215, 4136
18:04:05.062289, 505.2175, 4109
18:04:05.062356, 505.22, 4080
18:04:05.062380, 505.2225, 4110
18:04:05.062400, 505.225, 4138
18:04:05.063335, 505.2275, 4140
18:04:05.063368, 505.23, 4070
18:04:05.063386, 505.2325, 4167
18:04:05.063420, 505.235, 4172
18:04:05.092034, 505.2375, 4195
18:04:05.092108, 505.24, 4203
18:04:05.092135, 505.2425, 4201
18:04:05.092170, 505.245, 4209
18:04:05.092192, 505.2475, 4118
18:04:05.093138, 505.25, 4213
18:04:05.093172, 505.2525, 4204
18:04:05.093219, 505.255, 4196
18:04:05.093242, 505.2575, 4183
18:04:05.094471, 505.26, 4180
18:04:05.094494, 505.2625, 4188
18:04:05.094508, 505.265, 4015
18:04:05.094522, 505.2675, 4192
18:04:05.114516, 505.27, 4164
18:04:05.114576, 505.2725, 4164
18:04:05.114600, 505.275, 4161
18:04:05.114621, 505.2775, 4172
18:04:05.115651, 505.28, 4172
18:04:05.115682, 505.2825, 4100
18:04:05.115792, 505.285, 4189
18:04:05.115847, 505.2875, 4175
18:04:05.118886, 505.29, 4173
18:04:05.118916, 505.2925, 4147
18:04:05.118930, 505.295, 4157
18:04:05.118943, 505.2975, 4148
18:04:05.143506, 505.3, 4065
18:04:05.143577, 505.3025, 4188
18:04:05.143601, 505.305, 4192
18:04:05.143668, 505.3075, 4228
18:04:05.144705, 505.31, 4285
18:04:05.144771, 505.3125, 4385
18:04:05.144865, 505.315, 4408
18:04:05.144923, 505.3175, 4355
18:04:05.144962, 505.32, 4472
18:04:05.146080, 505.3225, 4497
18:04:05.146104, 505.325, 4399
18:04:05.146118, 505.3275, 4189
18:04:05.146132, 505.33, 3951
18:04:05.166700, 505.3325, 3612
18:04:05.166789, 505.335, 3167
18:04:05.166863, 505.3375, 2860
18:04:05.166908, 505.34, 2407
18:04:05.186046, 505.3425, 1836
18:04:05.186123, 505.345, 1540
18:04:05.186161, 505.3475, 1516
18:04:05.186201, 505.35, 1653
18:04:05.192441, 505.3525, 2206
18:04:05.192496, 505.355, 3179
18:04:05.192525, 505.3575, 4064
18:04:05.192551, 505.36, 4656
18:04:05.192934, 505.3625, 4950
18:04:05.192972, 505.365, 4999
18:04:05.192993, 505.3675, 4860
18:04:05.193013, 505.37, 4617
18:04:05.211650, 505.3725, 4600
18:04:05.211751, 505.375, 4563
18:04:05.211790, 505.3775, 4540
18:04:05.211813, 505.38, 4492
18:04:05.212115, 505.3825, 4527
18:04:05.212136, 505.385, 4534
18:04:05.212151, 505.3875, 4435
18:04:05.212165, 505.39, 4539
18:04:05.215545, 505.3925, 4547
18:04:05.215586, 505.395, 4530
18:04:05.215613, 505.3975, 4554
18:04:05.215636, 505.4, 4558
18:04:05.251809, 505.4025, 4525
18:04:05.251885, 505.405, 4432
18:04:05.251917, 505.4075, 4517
18:04:05.251944, 505.41, 4515
18:04:05.252365, 505.4125, 4480
18:04:05.252396, 505.415, 4483
18:04:05.252417, 505.4175, 4490
18:04:05.252438, 505.42, 4469
18:04:05.252458, 505.4225, 4368
18:04:05.276902, 505.425, 4465
18:04:05.277077, 505.4275, 4460
18:04:05.277126, 505.43, 4431
18:04:05.277155, 505.4325, 4410
18:04:05.277633, 505.435, 4425
18:04:05.277679, 505.4375, 4395
18:04:05.277700, 505.44, 4318
18:04:05.277720, 505.4425, 4388
18:04:05.278071, 505.445, 4374
18:04:05.278103, 505.4475, 4351
18:04:05.278123, 505.45, 4324
18:04:05.278142, 505.4525, 4366
18:04:05.285499, 505.455, 4344
18:04:05.285553, 505.4575, 4253
18:04:05.285573, 505.46, 4342
18:04:05.285593, 505.4625, 4342
18:04:05.312755, 505.465, 4344
18:04:05.312905, 505.4675, 4314
18:04:05.312953, 505.47, 4298
18:04:05.312986, 505.4725, 4270
18:04:05.313460, 505.475, 4195
18:04:05.313494, 505.4775, 4288
18:04:05.313518, 505.48, 4286
18:04:05.313540, 505.4825, 4262
18:04:05.313942, 505.485, 4263
18:04:05.313972, 505.4875, 4285
18:04:05.313994, 505.49, 4276
18:04:05.314017, 505.4925, 4145
18:04:05.314039, 505.495, 4279
18:04:05.320442, 505.4975, 4260
18:04:05.320500, 505.5, 4251
18:04:05.320544, 505.5025, 4225
18:04:05.320589, 505.505, 4240
18:04:05.343450, 505.5075, 4226
18:04:05.343560, 505.51, 4173
18:04:05.343598, 505.5125, 4272
18:04:05.343628, 505.515, 4248
18:04:05.346643, 505.5175, 4261
18:04:05.346690, 505.52, 4241
18:04:05.346714, 505.5225, 4254
18:04:05.346735, 505.525, 4223
18:04:05.355492, 505.5275, 4180
18:04:05.355534, 505.53, 4254
18:04:05.355554, 505.5325, 4245
18:04:05.355572, 505.535, 4250
18:04:05.376890, 505.5375, 4241
18:04:05.376969, 505.54, 4240
18:04:05.376993, 505.5425, 4217
18:04:05.377011, 505.545, 4136
18:04:05.377462, 505.5475, 4251
18:04:05.377497, 505.55, 4227
18:04:05.377513, 505.5525, 4218
18:04:05.377529, 505.555, 4209
18:04:05.392928, 505.5575, 4207
18:04:05.393036, 505.56, 4206
18:04:05.393058, 505.5625, 4114
18:04:05.393075, 505.565, 4206
18:04:05.410562, 505.5675, 4192
18:04:05.410672, 505.57, 4187
18:04:05.410706, 505.5725, 4198
18:04:05.410734, 505.575, 4211
18:04:05.411425, 505.5775, 4177
18:04:05.411469, 505.58, 4058
18:04:05.411489, 505.5825, 4208
18:04:05.411508, 505.585, 4189
18:04:05.411527, 505.5875, 4196
18:04:05.416768, 505.59, 4181
18:04:05.416835, 505.5925, 4177
18:04:05.416862, 505.595, 4183
18:04:05.416886, 505.5975, 4088
18:04:05.444883, 505.6, 4175
18:04:05.445002, 505.6025, 4178
18:04:05.445071, 505.605, 4158
18:04:05.445137, 505.6075, 4148
18:04:05.445912, 505.61, 4155
18:04:05.445969, 505.6125, 4176
18:04:05.445998, 505.615, 4061
18:04:05.446024, 505.6175, 4161
18:04:05.446536, 505.62, 4144
18:04:05.446576, 505.6225, 4164
18:04:05.446602, 505.625, 4156
18:04:05.446627, 505.6275, 4161
18:04:05.479282, 505.63, 4152
18:04:05.479388, 505.6325, 4043
18:04:05.479465, 505.635, 4134
18:04:05.479498, 505.6375, 4123
18:04:05.479917, 505.64, 4117
18:04:05.479948, 505.6425, 4113
18:04:05.479968, 505.645, 4106
18:04:05.479988, 505.6475, 4123
18:04:05.480349, 505.65, 4039
18:04:05.480386, 505.6525, 4120
18:04:05.480406, 505.655, 4134
18:04:05.480425, 505.6575, 4132
18:04:05.486885, 505.66, 4131
18:04:05.486956, 505.6625, 4135
18:04:05.486993, 505.665, 4146
18:04:05.487027, 505.6675, 4068
18:04:05.511500, 505.67, 4163
18:04:05.511633, 505.6725, 4169
18:04:05.511664, 505.675, 4163
18:04:05.511686, 505.6775, 4171
18:04:05.511705, 505.68, 4183
18:04:05.512217, 505.6825, 4201
18:04:05.512271, 505.685, 4110
18:04:05.512291, 505.6875, 4223
18:04:05.512307, 505.69, 4212
18:04:05.522224, 505.6925, 4200
18:04:05.522326, 505.695, 4190
18:04:05.522381, 505.6975, 4228
18:04:05.522432, 505.7, 4203
18:04:05.548069, 505.7025, 4141
18:04:05.548134, 505.705, 4202
18:04:05.548157, 505.7075, 4202
18:04:05.548178, 505.71, 4213
18:04:05.548515, 505.7125, 4202
18:04:05.548541, 505.715, 4222
18:04:05.548557, 505.7175, 4196
18:04:05.548572, 505.72, 4113
18:04:05.559188, 505.7225, 4197
18:04:05.559253, 505.725, 4205
18:04:05.559289, 505.7275, 4199
18:04:05.559322, 505.73, 4204
18:04:05.560750, 505.7325, 4215
18:04:05.560810, 505.735, 4189
18:04:05.560853, 505.7375, 4185
18:04:05.560898, 505.74, 4224
18:04:05.579586, 505.7425, 4215
18:04:05.579728, 505.745, 4228
18:04:05.579782, 505.7475, 4191
18:04:05.579810, 505.75, 4219
18:04:05.582885, 505.7525, 4217
18:04:05.582952, 505.755, 4119
18:04:05.582985, 505.7575, 4207
18:04:05.583012, 505.76, 4187
18:04:05.583039, 505.7625, 4186
18:04:05.591503, 505.765, 4185
18:04:05.591533, 505.7675, 4179
18:04:05.591548, 505.77, 4196
18:04:05.591562, 505.7725, 4091
18:04:05.611976, 505.775, 4202
18:04:05.612091, 505.7775, 4185
18:04:05.612127, 505.78, 4183
18:04:05.612156, 505.7825, 4165
18:04:05.612756, 505.785, 4192
18:04:05.612822, 505.7875, 4177
18:04:05.612849, 505.79, 4094
18:04:05.612873, 505.7925, 4187
18:04:05.618001, 505.795, 4167
18:04:05.618119, 505.7975, 4191
18:04:05.618162, 505.8, 4178
18:04:05.618197, 505.8025, 4188
18:04:05.647674, 505.805, 4177
18:04:05.647758, 505.8075, 4092
18:04:05.647794, 505.81, 4181
18:04:05.647823, 505.8125, 4173
18:04:05.648389, 505.815, 4170
18:04:05.648429, 505.8175, 4153
18:04:05.648457, 505.82, 4153
18:04:05.648484, 505.8225, 4154
18:04:05.648511, 505.825, 4076
18:04:05.653310, 505.8275, 4170
18:04:05.653396, 505.83, 4178
18:04:05.653450, 505.8325, 4167
18:04:05.653501, 505.835, 4119
18:04:05.679857, 505.8375, 4144
18:04:05.679940, 505.84, 4144
18:04:05.679964, 505.8425, 4061
18:04:05.679985, 505.845, 4153
18:04:05.680353, 505.8475, 4158
18:04:05.680383, 505.85, 4161
18:04:05.680399, 505.8525, 4146
18:04:05.680413, 505.855, 4150
18:04:05.716140, 505.8575, 4160
18:04:05.716218, 505.86, 4036
18:04:05.716256, 505.8625, 4202
18:04:05.716291, 505.865, 4198
18:04:05.717192, 505.8675, 4183
18:04:05.717267, 505.87, 4153
18:04:05.717320, 505.8725, 4182
18:04:05.717369, 505.875, 4164
18:04:05.718270, 505.8775, 4065
18:04:05.718337, 505.88, 4164
18:04:05.718387, 505.8825, 4145
18:04:05.718437, 505.885, 4155
18:04:05.719158, 505.8875, 4145
18:04:05.719191, 505.89, 4200
18:04:05.719214, 505.8925, 4186
18:04:05.719236, 505.895, 4101
18:04:05.722772, 505.8975, 4177
18:04:05.722805, 505.9, 4183
18:04:05.722828, 505.9025, 4190
18:04:05.722860, 505.905, 4167
18:04:05.752752, 505.9075, 4188
18:04:05.752974, 505.91, 4183
18:04:05.753049, 505.9125, 4088
18:04:05.753142, 505.915, 4188
18:04:05.754263, 505.9175, 4176
18:04:05.754344, 505.92, 4158
18:04:05.754400, 505.9225, 4162
18:04:05.754452, 505.925, 4184
18:04:05.784220, 505.9275, 4162
18:04:05.784283, 505.93, 4066
18:04:05.784358, 505.9325, 4169
18:04:05.784412, 505.935, 4175
18:04:05.784458, 505.9375, 4184
18:04:05.785170, 505.94, 4170
18:04:05.785244, 505.9425, 4153
18:04:05.785297, 505.945, 4146
18:04:05.785328, 505.9475, 4116
18:04:05.785856, 505.95, 4159
18:04:05.785913, 505.9525, 4160
18:04:05.785955, 505.955, 4173
18:04:05.785996, 505.9575, 4142
18:04:05.786716, 505.96, 4187
18:04:05.786769, 505.9625, 4170
18:04:05.786811, 505.965, 4089
18:04:05.786882, 505.9675, 4194
18:04:05.792889, 505.97, 4182
18:04:05.792931, 505.9725, 4175
18:04:05.792961, 505.975, 4168
18:04:05.792988, 505.9775, 4185
18:04:05.816252, 505.98, 4199
18:04:05.816346, 505.9825, 4093
18:04:05.816380, 505.985, 4194
18:04:05.816410, 505.9875, 4181
18:04:05.819396, 505.99, 4187
18:04:05.819453, 505.9925, 4184
18:04:05.819490, 505.995, 4201
18:04:05.819524, 505.9975, 4177
18:04:05.846282, 506.0, 4123
18:04:05.846379, 506.0025, 4161
18:04:05.846402, 506.005, 4178
18:04:05.846420, 506.0075, 4184
18:04:05.846884, 506.01, 4179
18:04:05.846939, 506.0125, 4157
18:04:05.846957, 506.015, 4177
18:04:05.846973, 506.0175, 4094
18:04:05.847249, 506.02, 4187
18:04:05.847274, 506.0225, 4189
18:04:05.847289, 506.025, 4183
18:04:05.847304, 506.0275, 4176
18:04:05.854142, 506.03, 4187
18:04:05.854185, 506.0325, 4186
18:04:05.854209, 506.035, 4098
18:04:05.854231, 506.0375, 4192
18:04:05.854252, 506.04, 4176
18:04:05.895297, 506.0425, 4176
18:04:05.895383, 506.045, 4183
18:04:05.895422, 506.0475, 4169
18:04:05.895440, 506.05, 4176
18:04:05.895811, 506.0525, 4147
18:04:05.895846, 506.055, 4177
18:04:05.895865, 506.0575, 4196
18:04:05.895882, 506.06, 4186
18:04:05.896788, 506.0625, 4189
18:04:05.896822, 506.065, 4180
18:04:05.896855, 506.0675, 4161
18:04:05.896880, 506.07, 4065
18:04:05.898442, 506.0725, 4169
18:04:05.898464, 506.075, 4159
18:04:05.898479, 506.0775, 4157
18:04:05.898504, 506.08, 4162
18:04:05.922334, 506.0825, 4167
18:04:05.922396, 506.085, 4172
18:04:05.922430, 506.0875, 4063
18:04:05.922448, 506.09, 4183
18:04:05.923586, 506.0925, 4174
18:04:05.923662, 506.095, 4160
18:04:05.923709, 506.0975, 4168
18:04:05.923775, 506.1, 4190
18:04:05.938977, 506.1025, 4191
18:04:05.939035, 506.105, 4083
18:04:05.939058, 506.1075, 4187
18:04:05.939078, 506.11, 4175
18:04:05.939100, 506.1125, 4154
18:04:05.941530, 506.115, 4154
18:04:05.941560, 506.1175, 4140
18:04:05.941576, 506.12, 4147
18:04:05.941592, 506.1225, 4063
18:04:05.965589, 506.125, 4139
18:04:05.965650, 506.1275, 4160
18:04:05.965673, 506.13, 4170
18:04:05.965692, 506.1325, 4173
18:04:05.966064, 506.135, 4146
18:04:05.966087, 506.1375, 4136
18:04:05.966102, 506.14, 4063
18:04:05.966116, 506.1425, 4156
18:04:05.967628, 506.145, 4169
18:04:05.967652, 506.1475, 4156
18:04:05.967667, 506.15, 4167
18:04:05.967682, 506.1525, 4200
18:04:05.997651, 506.155, 4169
18:04:05.997843, 506.1575, 4080
18:04:05.997897, 506.16, 4181
18:04:05.997953, 506.1625, 4166
18:04:05.998520, 506.165, 4141
18:04:05.998575, 506.1675, 4137
18:04:05.998599, 506.17, 4153
18:04:05.998622, 506.1725, 4142
18:04:06.002824, 506.175, 4047
18:04:06.002906, 506.1775, 4156
18:04:06.002941, 506.18, 4131
18:04:06.002971, 506.1825, 4132
18:04:06.003000, 506.185, 4126
18:04:06.013615, 506.1875, 4133
18:04:06.013662, 506.19, 4159
18:04:06.013682, 506.1925, 4054
18:04:06.013708, 506.195, 4171
18:04:06.032750, 506.1975, 4170
18:04:06.032850, 506.2, 4134
18:04:06.032887, 506.2025, 4159
18:04:06.032912, 506.205, 4178
18:04:06.033229, 506.2075, 4156
18:04:06.033250, 506.21, 4078
18:04:06.033265, 506.2125, 4164
18:04:06.033279, 506.215, 4122
18:04:06.063901, 506.2175, 4119
18:04:06.063971, 506.22, 4101
18:04:06.063994, 506.2225, 4133
18:04:06.064014, 506.225, 4108
18:04:06.064421, 506.2275, 4079
18:04:06.064458, 506.23, 4140
18:04:06.064475, 506.2325, 4133
18:04:06.064489, 506.235, 4089
18:04:06.064749, 506.2375, 4086
18:04:06.064773, 506.24, 4118
18:04:06.064789, 506.2425, 4145
18:04:06.064803, 506.245, 4042
18:04:06.073394, 506.2475, 4160
18:04:06.073484, 506.25, 4174
18:04:06.073536, 506.2525, 4177
18:04:06.073582, 506.255, 4183
18:04:06.098205, 506.2575, 4191
18:04:06.098299, 506.26, 4171
18:04:06.098341, 506.2625, 4086
18:04:06.098368, 506.265, 4196
18:04:06.098775, 506.2675, 4192
18:04:06.098810, 506.27, 4187
18:04:06.098827, 506.2725, 4169
18:04:06.098882, 506.275, 4169
18:04:06.134632, 506.2775, 4177
18:04:06.134724, 506.28, 4075
18:04:06.134751, 506.2825, 4184
18:04:06.134770, 506.285, 4174
18:04:06.135099, 506.2875, 4161
18:04:06.135121, 506.29, 4182
18:04:06.135137, 506.2925, 4162
18:04:06.135151, 506.295, 4174
18:04:06.135398, 506.2975, 4117
18:04:06.135416, 506.3, 4160
18:04:06.135430, 506.3025, 4158
18:04:06.135444, 506.305, 4160
18:04:06.135458, 506.3075, 4050
18:04:06.135703, 506.31, 4192
18:04:06.135721, 506.3125, 4184
18:04:06.135735, 506.315, 4092
18:04:06.135750, 506.3175, 4210
18:04:06.165106, 506.32, 4259
18:04:06.165211, 506.3225, 4341
18:04:06.165243, 506.325, 4400
18:04:06.165271, 506.3275, 4420
18:04:06.165803, 506.33, 4460
18:04:06.165849, 506.3325, 4422
18:04:06.165869, 506.335, 4343
18:04:06.165888, 506.3375, 4132
18:04:06.169163, 506.34, 3898
18:04:06.169217, 506.3425, 3643
18:04:06.169248, 506.345, 3344
18:04:06.169278, 506.3475, 3095
18:04:06.177780, 506.35, 2600
18:04:06.177811, 506.3525, 2100
18:04:06.177825, 506.355, 1767
18:04:06.177839, 506.3575, 1596
18:04:06.198684, 506.36, 1671
18:04:06.198786, 506.3625, 2043
18:04:06.198816, 506.365, 2729
18:04:06.198964, 506.3675, 3646
18:04:06.199404, 506.37, 4654
18:04:06.199448, 506.3725, 5028
18:04:06.199469, 506.375, 5146
18:04:06.199489, 506.3775, 5124
18:04:06.204434, 506.38, 4966
18:04:06.204509, 506.3825, 4779
18:04:06.204548, 506.385, 4569
18:04:06.204585, 506.3875, 4605
18:04:06.214283, 506.39, 4597
18:04:06.214441, 506.3925, 4522
18:04:06.214472, 506.395, 4489
18:04:06.214496, 506.3975, 4505
18:04:06.232970, 506.4, 4499
18:04:06.233039, 506.4025, 4420
18:04:06.233061, 506.405, 4499
18:04:06.233082, 506.4075, 4523
18:04:06.239040, 506.41, 4511
18:04:06.239083, 506.4125, 4495
18:04:06.239106, 506.415, 4478
18:04:06.239128, 506.4175, 4455
18:04:06.248876, 506.42, 4329
18:04:06.248946, 506.4225, 4438
18:04:06.248974, 506.425, 4424
18:04:06.248999, 506.4275, 4412
18:04:06.249023, 506.43, 4420
18:04:06.267939, 506.4325, 4385
18:04:06.267997, 506.435, 4395
18:04:06.268018, 506.4375, 4279
18:04:06.268037, 506.44, 4379
18:04:06.268364, 506.4425, 4365
18:04:06.268386, 506.445, 4365
18:04:06.268401, 506.4475, 4352
18:04:06.268414, 506.45, 4352
18:04:06.275164, 506.4525, 4332
18:04:06.275270, 506.455, 4244
18:04:06.275329, 506.4575, 4343
18:04:06.275381, 506.46, 4317
18:04:06.302880, 506.4625, 4314
18:04:06.302939, 506.465, 4309
18:04:06.302964, 506.4675, 4291
18:04:06.302984, 506.47, 4282
18:04:06.303338, 506.4725, 4244
18:04:06.303361, 506.475, 4279
18:04:06.303377, 506.4775, 4261
18:04:06.303392, 506.48, 4262
18:04:06.309295, 506.4825, 4260
18:04:06.309361, 506.485, 4281
18:04:06.309399, 506.4875, 4263
18:04:06.309433, 506.49, 4141
18:04:06.334629, 506.4925, 4228
18:04:06.334725, 506.495, 4238
18:04:06.334763, 506.4975, 4225
18:04:06.334795, 506.5, 4214
18:04:06.335771, 506.5025, 4223
18:04:06.335844, 506.505, 4217
18:04:06.335893, 506.5075, 4151
18:04:06.335938, 506.51, 4234
18:04:06.336745, 506.5125, 4223
18:04:06.336805, 506.515, 4196
18:04:06.336851, 506.5175, 4162
18:04:06.336896, 506.52, 4205
18:04:06.366132, 506.5225, 4205
18:04:06.366242, 506.525, 4112
18:04:06.366270, 506.5275, 4222
18:04:06.366290, 506.53, 4202
18:04:06.366668, 506.5325, 4193
18:04:06.366702, 506.535, 4210
18:04:06.366718, 506.5375, 4200
18:04:06.366734, 506.54, 4200
18:04:06.366748, 506.5425, 4124
18:04:06.370255, 506.545, 4212
18:04:06.370308, 506.5475, 4191
18:04:06.370342, 506.55, 4180
18:04:06.370370, 506.5525, 4165
18:04:06.379197, 506.555, 4174
18:04:06.379231, 506.5575, 4189
18:04:06.379248, 506.56, 4097
18:04:06.379272, 506.5625, 4179
18:04:06.401358, 506.565, 4186
18:04:06.401422, 506.5675, 4174
18:04:06.401445, 506.57, 4163
18:04:06.401466, 506.5725, 4171
18:04:06.401820, 506.575, 4166
18:04:06.401842, 506.5775, 4074
18:04:06.401858, 506.58, 4165
18:04:06.401874, 506.5825, 4170
18:04:06.415558, 506.585, 4171
18:04:06.415627, 506.5875, 4199
18:04:06.415676, 506.59, 4178
18:04:06.415724, 506.5925, 4157
18:04:06.436166, 506.595, 4128
18:04:06.436266, 506.5975, 4186
18:04:06.436320, 506.6, 4171
18:04:06.436359, 506.6025, 4164
18:04:06.436888, 506.605, 4166
18:04:06.436924, 506.6075, 4163
18:04:06.436952, 506.61, 4171
18:04:06.436981, 506.6125, 4077
18:04:06.440476, 506.615, 4182
18:04:06.440528, 506.6175, 4179
18:04:06.440560, 506.62, 4176
18:04:06.440590, 506.6225, 4150
18:04:06.465604, 506.625, 4161
18:04:06.465747, 506.6275, 4164
18:04:06.465792, 506.63, 4076
18:04:06.465831, 506.6325, 4160
18:04:06.466391, 506.635, 4138
18:04:06.466444, 506.6375, 4169
18:04:06.466476, 506.64, 4141
18:04:06.466504, 506.6425, 4143
18:04:06.475797, 506.645, 4119
18:04:06.475840, 506.6475, 4052
18:04:06.475869, 506.65, 4141
18:04:06.475895, 506.6525, 4167
18:04:06.499811, 506.655, 4154
18:04:06.500051, 506.6575, 4155
18:04:06.500099, 506.66, 4163
18:04:06.500142, 506.6625, 4157
18:04:06.500884, 506.665, 4067
18:04:06.500950, 506.6675, 4187
18:04:06.500978, 506.67, 4187
18:04:06.501007, 506.6725, 4190
18:04:06.501036, 506.675, 4196
18:04:06.501746, 506.6775, 4219
18:04:06.501788, 506.68, 4224
18:04:06.501819, 506.6825, 4119
18:04:06.501854, 506.685, 4250
18:04:06.510727, 506.6875, 4233
18:04:06.510781, 506.69, 4232
18:04:06.510818, 506.6925, 4235
18:04:06.510877, 506.695, 4256
18:04:06.533925, 506.6975, 4272
18:04:06.534009, 506.7, 4168
18:04:06.534038, 506.7025, 4295
18:04:06.534060, 506.705, 4268
18:04:06.543457, 506.7075, 4287
18:04:06.543537, 506.71, 4270
18:04:06.543573, 506.7125, 4283
18:04:06.543606, 506.715, 4254
18:04:06.545701, 506.7175, 4172
18:04:06.545749, 506.72, 4283
18:04:06.545782, 506.7225, 4263
18:04:06.545813, 506.725, 4255
18:04:06.566353, 506.7275, 4250
18:04:06.566451, 506.73, 4277
18:04:06.566491, 506.7325, 4274
18:04:06.566519, 506.735, 4207
18:04:06.566587, 506.7375, 4291
18:04:06.567036, 506.74, 4284
18:04:06.567090, 506.7425, 4279
18:04:06.567129, 506.745, 4252
18:04:06.567171, 506.7475, 4243
18:04:06.571529, 506.75, 4233
18:04:06.571564, 506.7525, 4140
18:04:06.571581, 506.755, 4231
18:04:06.571596, 506.7575, 4251
18:04:06.602994, 506.76, 4216
18:04:06.603091, 506.7625, 4220
18:04:06.603192, 506.765, 4229
18:04:06.603235, 506.7675, 4228
18:04:06.603790, 506.77, 4180
18:04:06.603831, 506.7725, 4216
18:04:06.603860, 506.775, 4196
18:04:06.603888, 506.7775, 4173
18:04:06.606713, 506.78, 4180
18:04:06.606754, 506.7825, 4211
18:04:06.606782, 506.785, 4224
18:04:06.606809, 506.7875, 4136
18:04:06.615876, 506.79, 4224
18:04:06.615926, 506.7925, 4194
18:04:06.615946, 506.795, 4193
18:04:06.615965, 506.7975, 4186
18:04:06.636551, 506.8, 4203
18:04:06.636650, 506.8025, 4196
18:04:06.636692, 506.805, 4125
18:04:06.636728, 506.8075, 4218
18:04:06.637302, 506.81, 4200
18:04:06.637341, 506.8125, 4196
18:04:06.637368, 506.815, 4197
18:04:06.637394, 506.8175, 4214
18:04:06.669137, 506.82, 4209
18:04:06.669228, 506.8225, 4118
18:04:06.669258, 506.825, 4215
18:04:06.669300, 506.8275, 4166
18:04:06.669760, 506.83, 4186
18:04:06.669789, 506.8325, 4197
18:04:06.669809, 506.835, 4174
18:04:06.669829, 506.8375, 4187
18:04:06.679124, 506.84, 4094
18:04:06.679146, 506.8425, 4184
18:04:06.679159, 506.845, 4195
18:04:06.679172, 506.8475, 4180
18:04:06.679184, 506.85, 4191
18:04:06.680127, 506.8525, 4206
18:04:06.680145, 506.855, 4209
18:04:06.680158, 506.8575, 4106
18:04:06.680171, 506.86, 4202
18:04:06.702703, 506.8625, 4187
18:04:06.702812, 506.865, 4180
18:04:06.702882, 506.8675, 4148
18:04:06.702914, 506.87, 4214
18:04:06.703387, 506.8725, 4204
18:04:06.703417, 506.875, 4094
18:04:06.703432, 506.8775, 4190
18:04:06.703446, 506.88, 4177
18:04:06.712236, 506.8825, 4183
18:04:06.712355, 506.885, 4195
18:04:06.712413, 506.8875, 4214
18:04:06.712465, 506.89, 4175
18:04:06.746315, 506.8925, 4143
18:04:06.746385, 506.895, 4202
18:04:06.746440, 506.8975, 4195
18:04:06.746475, 506.9, 4204
18:04:06.746973, 506.9025, 4178
18:04:06.747005, 506.905, 4190
18:04:06.747024, 506.9075, 4200
18:04:06.747042, 506.91, 4104
18:04:06.747850, 506.9125, 4203
18:04:06.747925, 506.915, 4193
18:04:06.747972, 506.9175, 4191
18:04:06.748017, 506.92, 4200
18:04:06.749193, 506.9225, 4187
18:04:06.749242, 506.925, 4192
18:04:06.749376, 506.9275, 4085
18:04:06.749393, 506.93, 4172
18:04:06.775639, 506.9325, 4192
18:04:06.775699, 506.935, 4172
18:04:06.775725, 506.9375, 4169
18:04:06.775746, 506.94, 4174
18:04:06.775767, 506.9425, 4172
18:04:06.776111, 506.945, 4123
18:04:06.776136, 506.9475, 4154
18:04:06.776152, 506.95, 4157
18:04:06.776167, 506.9525, 4149
18:04:06.782172, 506.955, 4155
18:04:06.782217, 506.9575, 4170
18:04:06.782236, 506.96, 4150
18:04:06.782285, 506.9625, 4042
18:04:06.803651, 506.965, 4142
18:04:06.803756, 506.9675, 4138
18:04:06.803792, 506.97, 4149
18:04:06.803823, 506.9725, 4137
18:04:06.804356, 506.975, 4185
18:04:06.804399, 506.9775, 4157
18:04:06.804423, 506.98, 4076
18:04:06.804446, 506.9825, 4157
18:04:06.808373, 506.985, 4150
18:04:06.808445, 506.9875, 4144
18:04:06.808498, 506.99, 4162
18:04:06.808548, 506.9925, 4180
18:04:06.834675, 506.995, 4164
18:04:06.834795, 506.9975, 4086
18:04:06.834834, 507.0, 4181
18:04:06.834929, 507.0025, 4187
18:04:06.835520, 507.005, 4156
18:04:06.835588, 507.0075, 4176
18:04:06.835618, 507.01, 4169
18:04:06.835645, 507.0125, 4158
18:04:06.835671, 507.015, 4055
18:04:06.843255, 507.0175, 4175
18:04:06.843340, 507.02, 4156
18:04:06.843387, 507.0225, 4159
18:04:06.843432, 507.025, 4153
18:04:06.868127, 507.0275, 4162
18:04:06.868263, 507.03, 4185
18:04:06.868307, 507.0325, 4084
18:04:06.868361, 507.035, 4174
18:04:06.868911, 507.0375, 4151
18:04:06.868971, 507.04, 4168
18:04:06.868995, 507.0425, 4159
18:04:06.869017, 507.045, 4161
18:04:06.869417, 507.0475, 4146
18:04:06.869454, 507.05, 4063
18:04:06.869476, 507.0525, 4142
18:04:06.869497, 507.055, 4142
18:04:06.906228, 507.0575, 4139
18:04:06.906352, 507.06, 4164
18:04:06.906408, 507.0625, 4189
18:04:06.906451, 507.065, 4168
18:04:06.906952, 507.0675, 4121
18:04:06.906988, 507.07, 4184
18:04:06.907003, 507.0725, 4169
18:04:06.907016, 507.075, 4164
18:04:06.907259, 507.0775, 4169
18:04:06.907277, 507.08, 4186
18:04:06.907291, 507.0825, 4170
18:04:06.907304, 507.085, 4093
18:04:06.907318, 507.0875, 4184
18:04:06.913320, 507.09, 4190
18:04:06.913414, 507.0925, 4175
18:04:06.913470, 507.095, 4170
18:04:06.913523, 507.0975, 4180
18:04:06.938697, 507.1, 4165
18:04:06.938796, 507.1025, 4056
18:04:06.938839, 507.105, 4163
18:04:06.938966, 507.1075, 4162
18:04:06.939547, 507.11, 4193
18:04:06.939588, 507.1125, 4164
18:04:06.939617, 507.115, 4151
18:04:06.939644, 507.1175, 4149
18:04:06.947640, 507.12, 4100
18:04:06.947667, 507.1225, 4153
18:04:06.947684, 507.125, 4155
18:04:06.947699, 507.1275, 4154
18:04:06.973125, 507.13, 4140
18:04:06.973274, 507.1325, 4176
18:04:06.973334, 507.135, 4158
18:04:06.973425, 507.1375, 4056
18:04:06.974886, 507.14, 4156
18:04:06.974984, 507.1425, 4165
18:04:06.975064, 507.145, 4160
18:04:06.975139, 507.1475, 4160
18:04:06.976448, 507.15, 4189
18:04:06.976536, 507.1525, 4174
18:04:06.976612, 507.155, 4104
18:04:06.976687, 507.1575, 4185
18:04:07.002577, 507.16, 4177
18:04:07.002697, 507.1625, 4170
18:04:07.002739, 507.165, 4171
18:04:07.002778, 507.1675, 4185
18:04:07.002812, 507.17, 4201
18:04:07.003701, 507.1725, 4152
18:04:07.003778, 507.175, 4179
18:04:07.003816, 507.1775, 4200
18:04:07.003848, 507.18, 4194
18:04:07.009352, 507.1825, 4165
18:04:07.009417, 507.185, 4184
18:04:07.009463, 507.1875, 4166
18:04:07.009507, 507.19, 4082
18:04:07.018488, 507.1925, 4172
18:04:07.018559, 507.195, 4168
18:04:07.018595, 507.1975, 4172
18:04:07.018630, 507.2, 4184
18:04:07.036229, 507.2025, 4190
18:04:07.036315, 507.205, 4171
18:04:07.036354, 507.2075, 4081
18:04:07.036390, 507.21, 4182
18:04:07.044467, 507.2125, 4165
18:04:07.044549, 507.215, 4175
18:04:07.044602, 507.2175, 4168
18:04:07.044651, 507.22, 4185
18:04:07.069400, 507.2225, 4146
18:04:07.069536, 507.225, 4160
18:04:07.069580, 507.2275, 4171
18:04:07.069617, 507.23, 4181
18:04:07.070150, 507.2325, 4174
18:04:07.070217, 507.235, 4182
18:04:07.070250, 507.2375, 4199
18:04:07.070279, 507.24, 4191
18:04:07.070925, 507.2425, 4105
18:04:07.070992, 507.245, 4169
18:04:07.071036, 507.2475, 4167
18:04:07.071082, 507.25, 4178
18:04:07.079418, 507.2525, 4174
18:04:07.079460, 507.255, 4180
18:04:07.079488, 507.2575, 4178
18:04:07.079513, 507.26, 4094
18:04:07.102559, 507.2625, 4190
18:04:07.102648, 507.265, 4140
18:04:07.102686, 507.2675, 4120
18:04:07.102723, 507.27, 4137
18:04:07.103519, 507.2725, 4158
18:04:07.103595, 507.275, 4150
18:04:07.103644, 507.2775, 4037
18:04:07.103689, 507.28, 4136
18:04:07.103732, 507.2825, 4124
18:04:07.114023, 507.285, 4131
18:04:07.114068, 507.2875, 4143
18:04:07.114095, 507.29, 4166
18:04:07.114119, 507.2925, 4158
18:04:07.136698, 507.295, 4123
18:04:07.136795, 507.2975, 4170
18:04:07.136833, 507.3, 4171
18:04:07.136894, 507.3025, 4186
18:04:07.137579, 507.305, 4185
18:04:07.137645, 507.3075, 4201
18:04:07.137674, 507.31, 4188
18:04:07.137702, 507.3125, 4088
18:04:07.140652, 507.315, 4175
18:04:07.140708, 507.3175, 4168
18:04:07.140740, 507.32, 4186
18:04:07.140769, 507.3225, 4155
18:04:07.148988, 507.325, 4191
18:04:07.149020, 507.3275, 4192
18:04:07.149034, 507.33, 4089
18:04:07.149047, 507.3325, 4185
18:04:07.170161, 507.335, 4193
18:04:07.170283, 507.3375, 4188
18:04:07.170318, 507.34, 4189
18:04:07.170452, 507.3425, 4190
18:04:07.176053, 507.345, 4189
18:04:07.176158, 507.3475, 4081
18:04:07.176216, 507.35, 4176
18:04:07.176268, 507.3525, 4172
18:04:07.185015, 507.355, 4162
18:04:07.185062, 507.3575, 4164
18:04:07.185090, 507.36, 4170
18:04:07.185117, 507.3625, 4176
18:04:07.185152, 507.365, 4106
18:04:07.203172, 507.3675, 4259
18:04:07.203280, 507.37, 4346
18:04:07.203330, 507.3725, 4423
18:04:07.203389, 507.375, 4456
18:04:07.203917, 507.3775, 4495
18:04:07.203970, 507.38, 4496
18:04:07.203994, 507.3825, 4361
18:04:07.204016, 507.385, 4317
18:04:07.210145, 507.3875, 4093
18:04:07.210179, 507.39, 3809
18:04:07.210196, 507.3925, 3453
18:04:07.210211, 507.395, 3138
18:04:07.219822, 507.3975, 2718
18:04:07.219900, 507.4, 2096
18:04:07.219933, 507.4025, 1706
18:04:07.219964, 507.405, 1467
18:04:07.240025, 507.4075, 1520
18:04:07.240120, 507.41, 1770
18:04:07.240159, 507.4125, 2513
18:04:07.240216, 507.415, 3495
18:04:07.245781, 507.4175, 4310
18:04:07.245853, 507.42, 4846
18:04:07.245895, 507.4225, 5006
18:04:07.245932, 507.425, 4941
18:04:07.274561, 507.4275, 4805
18:04:07.274644, 507.43, 4674
18:04:07.274767, 507.4325, 4579
18:04:07.274806, 507.435, 4455
18:04:07.275466, 507.4375, 4525
18:04:07.275513, 507.44, 4511
18:04:07.275547, 507.4425, 4511
18:04:07.275578, 507.445, 4508
18:04:07.282646, 507.4475, 4549
18:04:07.282685, 507.45, 4568
18:04:07.282703, 507.4525, 4473
18:04:07.282718, 507.455, 4571
18:04:07.283857, 507.4575, 4571
18:04:07.283878, 507.46, 4559
18:04:07.283893, 507.4625, 4521
18:04:07.283907, 507.465, 4514
18:04:07.308763, 507.4675, 4497
18:04:07.308884, 507.47, 4337
18:04:07.308950, 507.4725, 4485
18:04:07.308994, 507.475, 4489
18:04:07.317647, 507.4775, 4468
18:04:07.317681, 507.48, 4460
18:04:07.317699, 507.4825, 4473
18:04:07.317717, 507.485, 4451
18:04:07.317735, 507.4875, 4343
18:04:07.319402, 507.49, 4422
18:04:07.319446, 507.4925, 4420
18:04:07.319464, 507.495, 4404
18:04:07.319484, 507.4975, 4392
18:04:07.338814, 507.5, 4414
18:04:07.338949, 507.5025, 4388
18:04:07.338988, 507.505, 4225
18:04:07.339008, 507.5075, 4373
18:04:07.339327, 507.51, 4369
18:04:07.339363, 507.5125, 4372
18:04:07.339379, 507.515, 4328
18:04:07.339393, 507.5175, 4332
18:04:07.351106, 507.52, 4343
18:04:07.351141, 507.5225, 4241
18:04:07.351157, 507.525, 4325
18:04:07.351171, 507.5275, 4338
18:04:07.370967, 507.53, 4333
18:04:07.371089, 507.5325, 4331
18:04:07.371127, 507.535, 4310
18:04:07.371223, 507.5375, 4299
18:04:07.371717, 507.54, 4190
18:04:07.371763, 507.5425, 4280
18:04:07.371783, 507.545, 4266
18:04:07.371802, 507.5475, 4286
18:04:07.376499, 507.55, 4276
18:04:07.376535, 507.5525, 4291
18:04:07.376551, 507.555, 4270
18:04:07.376565, 507.5575, 4176
18:04:07.376579, 507.56, 4269
18:04:07.406893, 507.5625, 4254
18:04:07.406979, 507.565, 4249
18:04:07.407072, 507.5675, 4241
18:04:07.407113, 507.57, 4247
18:04:07.407713, 507.5725, 4232
18:04:07.407755, 507.575, 4142
18:04:07.407784, 507.5775, 4210
18:04:07.407811, 507.58, 4223
18:04:07.411504, 507.5825, 4216
18:04:07.411527, 507.585, 4183
18:04:07.411542, 507.5875, 4237
18:04:07.411557, 507.59, 4240
18:04:07.420436, 507.5925, 4179
18:04:07.421137, 507.595, 4241
18:04:07.421178, 507.5975, 4248
18:04:07.421197, 507.6, 4216
18:04:07.442362, 507.6025, 4210
18:04:07.442483, 507.605, 4231
18:04:07.442545, 507.6075, 4213
18:04:07.442599, 507.61, 4115
18:04:07.443209, 507.6125, 4218
18:04:07.443251, 507.615, 4230
18:04:07.443279, 507.6175, 4233
18:04:07.443306, 507.62, 4224
18:04:07.447022, 507.6225, 4240
18:04:07.447061, 507.625, 4220
18:04:07.447090, 507.6275, 4125
18:04:07.447119, 507.63, 4229
18:04:07.447146, 507.6325, 4227
18:04:07.474335, 507.635, 4238
18:04:07.474438, 507.6375, 4241
18:04:07.474463, 507.64, 4257
18:04:07.474482, 507.6425, 4225
18:04:07.475118, 507.645, 4192
18:04:07.475237, 507.6475, 4220
18:04:07.475336, 507.65, 4224
18:04:07.475393, 507.6525, 4205
18:04:07.482375, 507.655, 4207
18:04:07.482453, 507.6575, 4217
18:04:07.482506, 507.66, 4200
18:04:07.482556, 507.6625, 4124
18:04:07.504666, 507.665, 4203
18:04:07.504724, 507.6675, 4209
18:04:07.504746, 507.67, 4194
18:04:07.504766, 507.6725, 4171
18:04:07.505119, 507.675, 4194
18:04:07.505161, 507.6775, 4201
18:04:07.505177, 507.68, 4072
18:04:07.505191, 507.6825, 4169
18:04:07.507917, 507.685, 4153
18:04:07.507966, 507.6875, 4135
18:04:07.507991, 507.69, 4156
18:04:07.508013, 507.6925, 4133
18:04:07.538195, 507.695, 4133
18:04:07.538291, 507.6975, 4032
18:04:07.538326, 507.7, 4114
18:04:07.538374, 507.7025, 4101
18:04:07.545107, 507.705, 4092
18:04:07.545153, 507.7075, 4080
18:04:07.545174, 507.71, 4091
18:04:07.545192, 507.7125, 4077
18:04:07.545211, 507.715, 4004
18:04:07.546339, 507.7175, 4112
18:04:07.546362, 507.72, 4114
18:04:07.546381, 507.7225, 4113
18:04:07.546399, 507.725, 4127
18:04:07.551573, 507.7275, 4166
18:04:07.551597, 507.73, 4160
18:04:07.551615, 507.7325, 4009
18:04:07.551633, 507.735, 4144
18:04:07.575840, 507.7375, 4156
18:04:07.575921, 507.74, 4155
18:04:07.575955, 507.7425, 4173
18:04:07.575986, 507.745, 4199
18:04:07.577773, 507.7475, 4190
18:04:07.577809, 507.75, 4114
18:04:07.577833, 507.7525, 4215
18:04:07.577855, 507.755, 4207
18:04:07.586970, 507.7575, 4200
18:04:07.587017, 507.76, 4195
18:04:07.587036, 507.7625, 4190
18:04:07.587096, 507.765, 4148
18:04:07.609088, 507.7675, 4105
18:04:07.609187, 507.77, 4216
18:04:07.609220, 507.7725, 4221
18:04:07.609267, 507.775, 4213
18:04:07.609299, 507.7775, 4215
18:04:07.609794, 507.78, 4213
18:04:07.609827, 507.7825, 4223
18:04:07.609851, 507.785, 4116
18:04:07.609874, 507.7875, 4217
18:04:07.613204, 507.79, 4196
18:04:07.613273, 507.7925, 4204
18:04:07.613313, 507.795, 4179
18:04:07.613349, 507.7975, 4228
18:04:07.638784, 507.8, 4225
18:04:07.638948, 507.8025, 4110
18:04:07.639070, 507.805, 4195
18:04:07.639115, 507.8075, 4200
18:04:07.639768, 507.81, 4195
18:04:07.639822, 507.8125, 4174
18:04:07.639849, 507.815, 4197
18:04:07.639876, 507.8175, 4158
18:04:07.648280, 507.82, 4134
18:04:07.648379, 507.8225, 4168
18:04:07.648435, 507.825, 4187
18:04:07.648486, 507.8275, 4161
18:04:07.672136, 507.83, 4171
18:04:07.672261, 507.8325, 4181
18:04:07.672320, 507.835, 4154
18:04:07.672370, 507.8375, 4059
18:04:07.673124, 507.84, 4139
18:04:07.673192, 507.8425, 4170
18:04:07.673232, 507.845, 4176
18:04:07.673271, 507.8475, 4155
18:04:07.674366, 507.85, 4166
18:04:07.674423, 507.8525, 4155
18:04:07.674464, 507.855, 4070
18:04:07.674503, 507.8575, 4170
18:04:07.705659, 507.86, 4194
18:04:07.705757, 507.8625, 4167
18:04:07.705793, 507.865, 4159
18:04:07.705870, 507.8675, 4172
18:04:07.705907, 507.87, 4175
18:04:07.706441, 507.8725, 4120
18:04:07.706491, 507.875, 4154
18:04:07.706518, 507.8775, 4163
18:04:07.706543, 507.88, 4191
18:04:07.708991, 507.8825, 4168
18:04:07.709033, 507.885, 4185
18:04:07.709057, 507.8875, 4177
18:04:07.709079, 507.89, 4088
18:04:07.718030, 507.8925, 4171
18:04:07.718086, 507.895, 4165
18:04:07.718128, 507.8975, 4151
18:04:07.718170, 507.9, 4147
18:04:07.739203, 507.9025, 4166
18:04:07.739321, 507.905, 4147
18:04:07.739379, 507.9075, 4071
18:04:07.739419, 507.91, 4159
18:04:07.740001, 507.9125, 4164
18:04:07.740056, 507.915, 4159
18:04:07.740083, 507.9175, 4164
18:04:07.740110, 507.92, 4168
18:04:07.776350, 507.9225, 4169
18:04:07.776427, 507.925, 4068
18:04:07.776458, 507.9275, 4155
18:04:07.776524, 507.93, 4162
18:04:07.776555, 507.9325, 4162
18:04:07.777000, 507.935, 4177
18:04:07.777029, 507.9375, 4153
18:04:07.777050, 507.94, 4153
18:04:07.777071, 507.9425, 4057
18:04:07.777433, 507.945, 4142
18:04:07.777460, 507.9475, 4123
18:04:07.777481, 507.95, 4144
18:04:07.777501, 507.9525, 4126
18:04:07.779537, 507.955, 4176
18:04:07.779624, 507.9575, 4149
18:04:07.779677, 507.96, 4080
18:04:07.779729, 507.9625, 4164
18:04:07.788468, 507.965, 4168
18:04:07.788559, 507.9675, 4160
18:04:07.788582, 507.97, 4164
18:04:07.788599, 507.9725, 4170
18:04:07.808940, 507.975, 4172
18:04:07.809020, 507.9775, 4081
18:04:07.809052, 507.98, 4172
18:04:07.809081, 507.9825, 4175
18:04:07.814401, 507.985, 4170
18:04:07.814470, 507.9875, 4152
18:04:07.814515, 507.99, 4172
18:04:07.814556, 507.9925, 4167
18:04:07.840993, 507.995, 4072
18:04:07.841069, 507.9975, 4144
18:04:07.841103, 508.0, 4152
18:04:07.841121, 508.0025, 4155
18:04:07.841511, 508.005, 4156
18:04:07.841538, 508.0075, 4173
18:04:07.841553, 508.01, 4157
18:04:07.841567, 508.0125, 4074
18:04:07.841581, 508.015, 4183
18:04:07.841829, 508.0175, 4176
18:04:07.841850, 508.02, 4153
18:04:07.841865, 508.0225, 4142
18:04:07.841879, 508.025, 4168
18:04:07.849284, 508.0275, 4184
18:04:07.849361, 508.03, 4094
18:04:07.849400, 508.0325, 4194
18:04:07.849438, 508.035, 4173
18:04:07.873133, 508.0375, 4170
18:04:07.873256, 508.04, 4148
18:04:07.873285, 508.0425, 4159
18:04:07.873306, 508.045, 4160
18:04:07.875513, 508.0475, 4105
18:04:07.875563, 508.05, 4172
18:04:07.875585, 508.0525, 4160
18:04:07.875606, 508.055, 4147
18:04:07.884274, 508.0575, 4150
18:04:07.884301, 508.06, 4162
18:04:07.884317, 508.0625, 4152
18:04:07.884331, 508.065, 4077
18:04:07.910723, 508.0675, 4184
18:04:07.910786, 508.07, 4182
18:04:07.910809, 508.0725, 4181
18:04:07.910827, 508.075, 4190
18:04:07.911337, 508.0775, 4198
18:04:07.911378, 508.08, 4185
18:04:07.911404, 508.0825, 4097
18:04:07.911430, 508.085, 4151
18:04:07.911884, 508.0875, 4170
18:04:07.911918, 508.09, 4175
18:04:07.911983, 508.0925, 4163
18:04:07.912012, 508.095, 4175
18:04:07.944578, 508.0975, 4171
18:04:07.944686, 508.1, 4060
18:04:07.944723, 508.1025, 4156
18:04:07.944797, 508.105, 4164
18:04:07.945072, 508.1075, 4169
18:04:07.945093, 508.11, 4168
18:04:07.945108, 508.1125, 4181
18:04:07.945121, 508.115, 4173
18:04:07.945135, 508.1175, 4071
18:04:07.945376, 508.12, 4175
18:04:07.945394, 508.1225, 4148
18:04:07.945407, 508.125, 4153
18:04:07.945421, 508.1275, 4170
18:04:07.954014, 508.13, 4174
18:04:07.954040, 508.1325, 4172
18:04:07.954055, 508.135, 4087
18:04:07.954069, 508.1375, 4189
18:04:07.981515, 508.14, 4194
18:04:07.981590, 508.1425, 4189
18:04:07.981637, 508.145, 4181
18:04:07.981676, 508.1475, 4212
18:04:07.982615, 508.15, 4193
18:04:07.982701, 508.1525, 4097
18:04:07.982758, 508.155, 4190
18:04:07.982825, 508.1575, 4207
18:04:08.007374, 508.16, 4190
18:04:08.007502, 508.1625, 4186
18:04:08.007543, 508.165, 4166
18:04:08.007574, 508.1675, 4181
18:04:08.007958, 508.17, 4079
18:04:08.008004, 508.1725, 4176
18:04:08.008022, 508.175, 4183
18:04:08.008039, 508.1775, 4180
18:04:08.008376, 508.18, 4171
18:04:08.008406, 508.1825, 4162
18:04:08.008423, 508.185, 4162
18:04:08.008437, 508.1875, 4056
18:04:08.015767, 508.19, 4180
18:04:08.015834, 508.1925, 4201
18:04:08.015870, 508.195, 4191
18:04:08.015904, 508.1975, 4177
18:04:08.015938, 508.2, 4189
18:04:08.045122, 508.2025, 4193
18:04:08.045212, 508.205, 4081
18:04:08.045316, 508.2075, 4167
18:04:08.045368, 508.21, 4185
18:04:08.045777, 508.2125, 4171
18:04:08.045808, 508.215, 4167
18:04:08.045829, 508.2175, 4199
18:04:08.045849, 508.22, 4172
18:04:08.051132, 508.2225, 4122
18:04:08.051221, 508.225, 4161
18:04:08.051277, 508.2275, 4179
18:04:08.051327, 508.23, 4163
18:04:08.082297, 508.2325, 4176
18:04:08.082418, 508.235, 4188
18:04:08.082493, 508.2375, 4176
18:04:08.082577, 508.24, 4095
18:04:08.083651, 508.2425, 4183
18:04:08.083737, 508.245, 4157
18:04:08.083794, 508.2475, 4162
18:04:08.083847, 508.25, 4155
18:04:08.084758, 508.2525, 4178
18:04:08.084826, 508.255, 4184
18:04:08.084879, 508.2575, 4086
18:04:08.084931, 508.26, 4184
18:04:08.118975, 508.2625, 4193
18:04:08.119044, 508.265, 4173
18:04:08.119073, 508.2675, 4158
18:04:08.119097, 508.27, 4186
18:04:08.119120, 508.2725, 4177
18:04:08.119503, 508.275, 4126
18:04:08.119529, 508.2775, 4176
18:04:08.119548, 508.28, 4152
18:04:08.119565, 508.2825, 4171
18:04:08.119868, 508.285, 4177
18:04:08.119914, 508.2875, 4172
18:04:08.119942, 508.29, 4174
18:04:08.119969, 508.2925, 4084
18:04:08.120617, 508.295, 4222
18:04:08.120652, 508.2975, 4169
18:04:08.120680, 508.3, 4179
18:04:08.120707, 508.3025, 4129
18:04:08.141950, 508.305, 4190
18:04:08.142058, 508.3075, 4187
18:04:08.142095, 508.31, 4096
18:04:08.142125, 508.3125, 4163
18:04:08.142770, 508.315, 4171
18:04:08.142821, 508.3175, 4159
18:04:08.142887, 508.32, 4177
18:04:08.142916, 508.3225, 4183
18:04:08.155799, 508.325, 4187
18:04:08.155853, 508.3275, 4087
18:04:08.155873, 508.33, 4177
18:04:08.155893, 508.3325, 4168
18:04:08.175946, 508.335, 4135
18:04:08.176034, 508.3375, 4138
18:04:08.176062, 508.34, 4156
18:04:08.176105, 508.3425, 4173
18:04:08.176130, 508.345, 4088
18:04:08.184503, 508.3475, 4169
18:04:08.184602, 508.35, 4167
18:04:08.184653, 508.3525, 4145
18:04:08.184700, 508.355, 4151
18:04:08.185692, 508.3575, 4164
18:04:08.185757, 508.36, 4150
18:04:08.185804, 508.3625, 4113
18:04:08.185849, 508.365, 4104
18:04:08.190820, 508.3675, 4116
18:04:08.190936, 508.37, 4140
18:04:08.190968, 508.3725, 4107
18:04:08.190994, 508.375, 4183
18:04:08.212328, 508.3775, 4184
18:04:08.212389, 508.38, 4083
18:04:08.212412, 508.3825, 4205
18:04:08.212433, 508.385, 4180
18:04:08.216691, 508.3875, 4169
18:04:08.216735, 508.39, 4186
18:04:08.216760, 508.3925, 4192
18:04:08.216783, 508.395, 4176
18:04:08.226138, 508.3975, 4099
18:04:08.226260, 508.4, 4181
18:04:08.226295, 508.4025, 4170
18:04:08.226326, 508.405, 4163
18:04:08.226354, 508.4075, 4152
18:04:08.245606, 508.41, 4166
18:04:08.245767, 508.4125, 4120
18:04:08.245809, 508.415, 4042
18:04:08.245889, 508.4175, 4125
18:04:08.246420, 508.42, 4090
18:04:08.246457, 508.4225, 4076
18:04:08.246483, 508.425, 4105
18:04:08.246506, 508.4275, 4118
18:04:08.251487, 508.43, 4137
18:04:08.251510, 508.4325, 4044
18:04:08.251526, 508.435, 4128
18:04:08.251540, 508.4375, 4128
18:04:08.277845, 508.44, 4120
18:04:08.277985, 508.4425, 4159
18:04:08.278019, 508.445, 4194
18:04:08.278065, 508.4475, 4211
18:04:08.291293, 508.45, 4141
18:04:08.291355, 508.4525, 4197
18:04:08.292179, 508.455, 4188
18:04:08.292229, 508.4575, 4190
18:04:08.308675, 508.46, 4186
18:04:08.308772, 508.4625, 4219
18:04:08.308795, 508.465, 4173
18:04:08.308815, 508.4675, 4143
18:04:08.309229, 508.47, 4197
18:04:08.309267, 508.4725, 4161
18:04:08.309282, 508.475, 4174
18:04:08.309296, 508.4775, 4133
18:04:08.315213, 508.48, 4204
18:04:08.315277, 508.4825, 4186
18:04:08.315312, 508.485, 4100
18:04:08.315344, 508.4875, 4198
18:04:08.316619, 508.49, 4207
18:04:08.316691, 508.4925, 4201
18:04:08.316746, 508.495, 4194
18:04:08.316781, 508.4975, 4189
18:04:08.344454, 508.5, 4183
18:04:08.344545, 508.5025, 4064
18:04:08.344594, 508.505, 4206
18:04:08.344638, 508.5075, 4227
18:04:08.344677, 508.51, 4248
18:04:08.345228, 508.5125, 4326
18:04:08.345265, 508.515, 4385
18:04:08.345291, 508.5175, 4416
18:04:08.345317, 508.52, 4377
18:04:08.379298, 508.5225, 4493
18:04:08.379407, 508.525, 4472
18:04:08.379443, 508.5275, 4311
18:04:08.379474, 508.53, 4085
18:04:08.380073, 508.5325, 3864
18:04:08.380114, 508.535, 3532
18:04:08.380143, 508.5375, 3238
18:04:08.380170, 508.54, 2821
18:04:08.380709, 508.5425, 2334
18:04:08.380750, 508.545, 1917
18:04:08.380779, 508.5475, 1675
18:04:08.380805, 508.55, 1651
18:04:08.382983, 508.5525, 1887
18:04:08.383005, 508.555, 2312
18:04:08.383021, 508.5575, 3370
18:04:08.383036, 508.56, 4338
18:04:08.391932, 508.5625, 4867
18:04:08.392438, 508.565, 5090
18:04:08.392483, 508.5675, 5128
18:04:08.392506, 508.57, 5006
18:04:08.392526, 508.5725, 4749
18:04:08.414230, 508.575, 4688
18:04:08.414318, 508.5775, 4603
18:04:08.414351, 508.58, 4574
18:04:08.414381, 508.5825, 4528
18:04:08.414904, 508.585, 4491
18:04:08.414945, 508.5875, 4497
18:04:08.414982, 508.59, 4400
18:04:08.415020, 508.5925, 4503
18:04:08.446210, 508.595, 4537
18:04:08.446356, 508.5975, 4519
18:04:08.446421, 508.6, 4522
18:04:08.446456, 508.6025, 4504
18:04:08.447767, 508.605, 4502
18:04:08.447887, 508.6075, 4368
18:04:08.447982, 508.61, 4469
18:04:08.448073, 508.6125, 4442
18:04:08.455198, 508.615, 4441
18:04:08.455228, 508.6175, 4403
18:04:08.455245, 508.62, 4456
18:04:08.455260, 508.6225, 4421
18:04:08.456218, 508.625, 4368
18:04:08.456240, 508.6275, 4402
18:04:08.456255, 508.63, 4376
18:04:08.456269, 508.6325, 4368
18:04:08.476311, 508.635, 4360
18:04:08.476397, 508.6375, 4372
18:04:08.476429, 508.64, 4351
18:04:08.476456, 508.6425, 4216
18:04:08.476976, 508.645, 4369
18:04:08.477019, 508.6475, 4367
18:04:08.477040, 508.65, 4355
18:04:08.477060, 508.6525, 4322
18:04:08.479055, 508.655, 4321
18:04:08.479104, 508.6575, 4317
18:04:08.479129, 508.66, 4211
18:04:08.479152, 508.6625, 4299
18:04:08.511394, 508.665, 4273
18:04:08.511509, 508.6675, 4278
18:04:08.511573, 508.67, 4277
18:04:08.511632, 508.6725, 4282
18:04:08.511715, 508.675, 4269
18:04:08.512524, 508.6775, 4252
18:04:08.512584, 508.68, 4239
18:04:08.512626, 508.6825, 4237
18:04:08.512665, 508.685, 4231
18:04:08.543481, 508.6875, 4203
18:04:08.543582, 508.69, 4229
18:04:08.543713, 508.6925, 4228
18:04:08.543782, 508.695, 4112
18:04:08.544381, 508.6975, 4229
18:04:08.544431, 508.7, 4207
18:04:08.544461, 508.7025, 4228
18:04:08.544489, 508.705, 4202
18:04:08.544980, 508.7075, 4225
18:04:08.545021, 508.71, 4218
18:04:08.545049, 508.7125, 4054
18:04:08.545076, 508.715, 4211
18:04:08.545635, 508.7175, 4210
18:04:08.545680, 508.72, 4204
18:04:08.545709, 508.7225, 4196
18:04:08.545736, 508.725, 4208
18:04:08.559021, 508.7275, 4196
18:04:08.559081, 508.73, 4124
18:04:08.559105, 508.7325, 4216
18:04:08.559124, 508.735, 4222
18:04:08.559142, 508.7375, 4198
18:04:08.582337, 508.74, 4184
18:04:08.582408, 508.7425, 4213
18:04:08.582453, 508.745, 4180
18:04:08.582512, 508.7475, 4094
18:04:08.582866, 508.75, 4191
18:04:08.582891, 508.7525, 4197
18:04:08.582906, 508.755, 4183
18:04:08.582921, 508.7575, 4172
18:04:08.583899, 508.76, 4194
18:04:08.583921, 508.7625, 4202
18:04:08.583936, 508.765, 4086
18:04:08.583951, 508.7675, 4189
18:04:08.593397, 508.77, 4187
18:04:08.593538, 508.7725, 4181
18:04:08.593567, 508.775, 4176
18:04:08.593589, 508.7775, 4208
18:04:08.612608, 508.78, 4194
18:04:08.612691, 508.7825, 4081
18:04:08.612728, 508.785, 4209
18:04:08.612759, 508.7875, 4187
18:04:08.619772, 508.79, 4184
18:04:08.619875, 508.7925, 4180
18:04:08.619934, 508.795, 4179
18:04:08.619986, 508.7975, 4176
18:04:08.643918, 508.8, 4080
18:04:08.644032, 508.8025, 4183
18:04:08.644070, 508.805, 4171
18:04:08.644099, 508.8075, 4198
18:04:08.644644, 508.81, 4170
18:04:08.644694, 508.8125, 4184
18:04:08.644723, 508.815, 4170
18:04:08.644750, 508.8175, 4075
18:04:08.645495, 508.82, 4163
18:04:08.645551, 508.8225, 4184
18:04:08.645580, 508.825, 4177
18:04:08.645608, 508.8275, 4144
18:04:08.645635, 508.83, 4165
18:04:08.654563, 508.8325, 4145
18:04:08.654660, 508.835, 4033
18:04:08.654715, 508.8375, 4140
18:04:08.654767, 508.84, 4139
18:04:08.684138, 508.8425, 4127
18:04:08.684233, 508.845, 4156
18:04:08.684268, 508.8475, 4153
18:04:08.684300, 508.85, 4128
18:04:08.684755, 508.8525, 4064
18:04:08.684788, 508.855, 4115
18:04:08.684815, 508.8575, 4141
18:04:08.684842, 508.86, 4130
18:04:08.689496, 508.8625, 4165
18:04:08.689543, 508.865, 4154
18:04:08.689574, 508.8675, 4171
18:04:08.689603, 508.87, 4044
18:04:08.722856, 508.8725, 4216
18:04:08.722934, 508.875, 4206
18:04:08.722957, 508.8775, 4217
18:04:08.722974, 508.88, 4195
18:04:08.723307, 508.8825, 4207
18:04:08.723330, 508.885, 4219
18:04:08.723344, 508.8875, 4127
18:04:08.723358, 508.89, 4227
18:04:08.723960, 508.8925, 4238
18:04:08.723990, 508.895, 4217
18:04:08.724005, 508.8975, 4226
18:04:08.724018, 508.9, 4228
18:04:08.724031, 508.9025, 4226
18:04:08.748310, 508.905, 4177
18:04:08.748421, 508.9075, 4251
18:04:08.748489, 508.91, 4238
18:04:08.748535, 508.9125, 4240
18:04:08.749376, 508.915, 4220
18:04:08.749428, 508.9175, 4240
18:04:08.749464, 508.92, 4225
18:04:08.749503, 508.9225, 4135
18:04:08.750533, 508.925, 4245
18:04:08.750559, 508.9275, 4234
18:04:08.750576, 508.93, 4225
18:04:08.750591, 508.9325, 4231
18:04:08.759971, 508.935, 4232
18:04:08.760019, 508.9375, 4238
18:04:08.760050, 508.94, 4132
18:04:08.760069, 508.9425, 4228
18:04:08.780770, 508.945, 4215
18:04:08.780880, 508.9475, 4212
18:04:08.780932, 508.95, 4196
18:04:08.780958, 508.9525, 4215
18:04:08.786030, 508.955, 4218
18:04:08.786132, 508.9575, 4124
18:04:08.786189, 508.96, 4227
18:04:08.786240, 508.9625, 4219
18:04:08.794618, 508.965, 4212
18:04:08.794702, 508.9675, 4206
18:04:08.794724, 508.97, 4208
18:04:08.794740, 508.9725, 4197
18:04:08.813816, 508.975, 4108
18:04:08.813863, 508.9775, 4215
18:04:08.813883, 508.98, 4194
18:04:08.813902, 508.9825, 4208
18:04:08.813951, 508.985, 4176
18:04:08.814261, 508.9875, 4210
18:04:08.814282, 508.99, 4212
18:04:08.814297, 508.9925, 4117
18:04:08.814312, 508.995, 4194
18:04:08.821072, 508.9975, 4179
18:04:08.821168, 509.0, 4174
18:04:08.821224, 509.0025, 4187
18:04:08.821274, 509.005, 4215
18:04:08.846343, 509.0075, 4210
18:04:08.846420, 509.01, 4106
18:04:08.846443, 509.0125, 4197
18:04:08.846496, 509.015, 4204
18:04:08.846836, 509.0175, 4206
18:04:08.846885, 509.02, 4190
18:04:08.846900, 509.0225, 4191
18:04:08.846915, 509.025, 4200
18:04:08.855401, 509.0275, 4159
18:04:08.855433, 509.03, 4193
18:04:08.855448, 509.0325, 4206
18:04:08.855463, 509.035, 4187
18:04:08.882177, 509.0375, 4195
18:04:08.882239, 509.04, 4204
18:04:08.882261, 509.0425, 4215
18:04:08.882308, 509.045, 4109
18:04:08.882613, 509.0475, 4208
18:04:08.882632, 509.05, 4173
18:04:08.882646, 509.0525, 4187
18:04:08.882660, 509.055, 4163
18:04:08.882921, 509.0575, 4178
18:04:08.882940, 509.06, 4171
18:04:08.882955, 509.0625, 4079
18:04:08.882968, 509.065, 4208
18:04:08.913039, 509.0675, 4183
18:04:08.913204, 509.07, 4214
18:04:08.913245, 509.0725, 4186
18:04:08.913320, 509.075, 4213
18:04:08.913363, 509.0775, 4193
18:04:08.913871, 509.08, 4151
18:04:08.913912, 509.0825, 4177
18:04:08.913936, 509.085, 4173
18:04:08.913959, 509.0875, 4155
18:04:08.916674, 509.09, 4162
18:04:08.916715, 509.0925, 4185
18:04:08.916742, 509.095, 4178
18:04:08.916767, 509.0975, 4090
18:04:08.925393, 509.1, 4166
18:04:08.925419, 509.1025, 4195
18:04:08.925442, 509.105, 4168
18:04:08.925456, 509.1075, 4184
18:04:08.946052, 509.11, 4183
18:04:08.946143, 509.1125, 4193
18:04:08.946166, 509.115, 4076
18:04:08.946186, 509.1175, 4193
18:04:08.946522, 509.12, 4155
18:04:08.946552, 509.1225, 4152
18:04:08.946567, 509.125, 4146
18:04:08.946581, 509.1275, 4179
18:04:08.961861, 509.13, 4189
18:04:08.961916, 509.1325, 4083
18:04:08.961938, 509.135, 4187
18:04:08.961957, 509.1375, 4189
18:04:08.980211, 509.14, 4189
18:04:08.980301, 509.1425, 4198
18:04:08.980326, 509.145, 4203
18:04:08.980348, 509.1475, 4186
18:04:08.980368, 509.15, 4109
18:04:08.980742, 509.1525, 4191
18:04:08.980770, 509.155, 4170
18:04:08.980786, 509.1575, 4162
18:04:08.980802, 509.16, 4160
18:04:08.987039, 509.1625, 4179
18:04:08.987117, 509.165, 4170
18:04:08.987162, 509.1675, 4071
18:04:08.987202, 509.17, 4192
18:04:09.018281, 509.1725, 4202
18:04:09.018348, 509.175, 4204
18:04:09.018376, 509.1775, 4159
18:04:09.018402, 509.18, 4193
18:04:09.018824, 509.1825, 4179
18:04:09.018871, 509.185, 4157
18:04:09.018892, 509.1875, 4176
18:04:09.018911, 509.19, 4193
18:04:09.022513, 509.1925, 4201
18:04:09.022606, 509.195, 4179
18:04:09.022663, 509.1975, 4155
18:04:09.022715, 509.2, 4157
18:04:09.050113, 509.2025, 4081
18:04:09.050172, 509.205, 4166
18:04:09.050194, 509.2075, 4159
18:04:09.050213, 509.21, 4163
18:04:09.050551, 509.2125, 4160
18:04:09.050572, 509.215, 4190
18:04:09.050587, 509.2175, 4179
18:04:09.050602, 509.22, 4069
18:04:09.050878, 509.2225, 4189
18:04:09.050898, 509.225, 4160
18:04:09.050913, 509.2275, 4175
18:04:09.050927, 509.23, 4178
18:04:09.056489, 509.2325, 4190
18:04:09.056515, 509.235, 4172
18:04:09.056531, 509.2375, 4105
18:04:09.056546, 509.24, 4197
18:04:09.056561, 509.2425, 4188
18:04:09.079726, 509.245, 4189
18:04:09.079822, 509.2475, 4185
18:04:09.079845, 509.25, 4235
18:04:09.079938, 509.2525, 4209
18:04:09.082625, 509.255, 4177
18:04:09.082659, 509.2575, 4178
18:04:09.082676, 509.26, 4194
18:04:09.082690, 509.2625, 4185
18:04:09.091777, 509.265, 4180
18:04:09.091805, 509.2675, 4183
18:04:09.091822, 509.27, 4175
18:04:09.091837, 509.2725, 4092
18:04:09.112865, 509.275, 4204
18:04:09.112943, 509.2775, 4189
18:04:09.112965, 509.28, 4157
18:04:09.113024, 509.2825, 4179
18:04:09.120391, 509.285, 4177
18:04:09.120483, 509.2875, 4164
18:04:09.120538, 509.29, 4055
18:04:09.120587, 509.2925, 4188
18:04:09.121882, 509.295, 4186
18:04:09.121957, 509.2975, 4162
18:04:09.122009, 509.3, 4137
18:04:09.122059, 509.3025, 4150
18:04:09.148313, 509.305, 4149
18:04:09.148372, 509.3075, 4018
18:04:09.148394, 509.31, 4164
18:04:09.148413, 509.3125, 4162
18:04:09.148432, 509.315, 4157
18:04:09.148765, 509.3175, 4139
18:04:09.148786, 509.32, 4149
18:04:09.148801, 509.3225, 4116
18:04:09.148816, 509.325, 4040
18:04:09.153275, 509.3275, 4137
18:04:09.153354, 509.33, 4149
18:04:09.153401, 509.3325, 4154
18:04:09.153446, 509.335, 4139
18:04:09.163052, 509.3375, 4147
18:04:09.163130, 509.34, 4144
18:04:09.163160, 509.3425, 4063
18:04:09.163233, 509.345, 4161
18:04:09.184771, 509.3475, 4159
18:04:09.184831, 509.35, 4142
18:04:09.184861, 509.3525, 4153
18:04:09.184888, 509.355, 4160
18:04:09.185349, 509.3575, 4154
18:04:09.185384, 509.36, 4054
18:04:09.185405, 509.3625, 4163
18:04:09.185426, 509.365, 4172
18:04:09.213514, 509.3675, 4147
18:04:09.213628, 509.37, 4158
18:04:09.213662, 509.3725, 4170
18:04:09.213768, 509.375, 4185
18:04:09.214245, 509.3775, 4103
18:04:09.214290, 509.38, 4144
18:04:09.214314, 509.3825, 4132
18:04:09.214334, 509.385, 4137
18:04:09.214713, 509.3875, 4119
18:04:09.214748, 509.39, 4168
18:04:09.214771, 509.3925, 4155
18:04:09.214792, 509.395, 4085
18:04:09.214820, 509.3975, 4156
18:04:09.223121, 509.4, 4116
18:04:09.223154, 509.4025, 4119
18:04:09.223205, 509.405, 4124
18:04:09.223227, 509.4075, 4153
18:04:09.252971, 509.41, 4145
18:04:09.253043, 509.4125, 4058
18:04:09.253067, 509.415, 4168
18:04:09.253134, 509.4175, 4167
18:04:09.259921, 509.42, 4151
18:04:09.259965, 509.4225, 4167
18:04:09.259984, 509.425, 4193
18:04:09.259999, 509.4275, 4170
18:04:09.262469, 509.43, 4137
18:04:09.262549, 509.4325, 4177
18:04:09.262574, 509.435, 4185
18:04:09.262631, 509.4375, 4185
18:04:09.283073, 509.44, 4187
18:04:09.283131, 509.4425, 4184
18:04:09.283153, 509.445, 4193
18:04:09.283171, 509.4475, 4042
18:04:09.283518, 509.45, 4175
18:04:09.283545, 509.4525, 4178
18:04:09.283567, 509.455, 4171
18:04:09.283582, 509.4575, 4165
18:04:09.283982, 509.46, 4168
18:04:09.284001, 509.4625, 4170
18:04:09.284015, 509.465, 4063
18:04:09.284029, 509.4675, 4191
18:04:09.316008, 509.47, 4190
18:04:09.316070, 509.4725, 4205
18:04:09.316121, 509.475, 4161
18:04:09.316143, 509.4775, 4152
18:04:09.316163, 509.48, 4113
18:04:09.316471, 509.4825, 4063
18:04:09.316492, 509.485, 4080
18:04:09.316507, 509.4875, 4077
18:04:09.316522, 509.49, 4100
18:04:09.331062, 509.4925, 4124
18:04:09.331314, 509.495, 4155
18:04:09.331365, 509.4975, 4141
18:04:09.331398, 509.5, 4072
18:04:09.348489, 509.5025, 4154
18:04:09.348573, 509.505, 4162
18:04:09.348596, 509.5075, 4151
18:04:09.348615, 509.51, 4128
18:04:09.349030, 509.5125, 4182
18:04:09.349062, 509.515, 4185
18:04:09.349078, 509.5175, 4073
18:04:09.349092, 509.52, 4225
18:04:09.349349, 509.5225, 4221
18:04:09.349369, 509.525, 4211
18:04:09.349383, 509.5275, 4199
18:04:09.349397, 509.53, 4197
18:04:09.363376, 509.5325, 4189
18:04:09.363438, 509.535, 4068
18:04:09.363458, 509.5375, 4177
18:04:09.363478, 509.54, 4159
18:04:09.363500, 509.5425, 4169
18:04:09.380920, 509.545, 4182
18:04:09.381050, 509.5475, 4178
18:04:09.381096, 509.55, 4192
18:04:09.381211, 509.5525, 4081
18:04:09.381807, 509.555, 4196
18:04:09.381867, 509.5575, 4177
18:04:09.381896, 509.56, 4175
18:04:09.381923, 509.5625, 4169
18:04:09.389273, 509.565, 4189
18:04:09.389346, 509.5675, 4192
18:04:09.389383, 509.57, 4103
18:04:09.389417, 509.5725, 4198
18:04:09.415370, 509.575, 4193
18:04:09.415462, 509.5775, 4225
18:04:09.415492, 509.58, 4260
18:04:09.415518, 509.5825, 4370
18:04:09.416029, 509.585, 4434
18:04:09.416069, 509.5875, 4368
18:04:09.416108, 509.59, 4506
18:04:09.416130, 509.5925, 4531
18:04:09.424229, 509.595, 4441
18:04:09.424325, 509.5975, 4279
18:04:09.424379, 509.6, 4044
18:04:09.424429, 509.6025, 3785
18:04:09.424479, 509.605, 3322
18:04:09.448039, 509.6075, 3061
18:04:09.448115, 509.61, 2620
18:04:09.448166, 509.6125, 2035
18:04:09.448194, 509.615, 1626
18:04:09.448582, 509.6175, 1496
18:04:09.448616, 509.62, 1592
18:04:09.448631, 509.6225, 1873
18:04:09.448646, 509.625, 2780
18:04:09.450373, 509.6275, 3755
18:04:09.450405, 509.63, 4567
18:04:09.450421, 509.6325, 4989
18:04:09.450435, 509.635, 5067
18:04:09.459546, 509.6375, 4997
18:04:09.459632, 509.64, 4737
18:04:09.459681, 509.6425, 4697
18:04:09.459727, 509.645, 4619
18:04:09.484339, 509.6475, 4608
18:04:09.484393, 509.65, 4585
18:04:09.484416, 509.6525, 4537
18:04:09.484434, 509.655, 4532
18:04:09.485362, 509.6575, 4503
18:04:09.485385, 509.66, 4549
18:04:09.485400, 509.6625, 4571
18:04:09.485414, 509.665, 4561
18:04:09.495418, 509.6675, 4560
18:04:09.495538, 509.67, 4570
18:04:09.495588, 509.6725, 4543
18:04:09.495628, 509.675, 4442
18:04:09.518663, 509.6775, 4528
18:04:09.518750, 509.68, 4512
18:04:09.518785, 509.6825, 4479
18:04:09.518815, 509.685, 4473
18:04:09.519532, 509.6875, 4465
18:04:09.519583, 509.69, 4454
18:04:09.519619, 509.6925, 4334
18:04:09.519653, 509.695, 4440
18:04:09.519687, 509.6975, 4423
18:04:09.528857, 509.7, 4390
18:04:09.528918, 509.7025, 4383
18:04:09.528939, 509.705, 4381
18:04:09.528955, 509.7075, 4393
18:04:09.553321, 509.71, 4325
18:04:09.553387, 509.7125, 4375
18:04:09.553410, 509.715, 4361
18:04:09.553429, 509.7175, 4352
18:04:09.553766, 509.72, 4340
18:04:09.553789, 509.7225, 4334
18:04:09.553804, 509.725, 4323
18:04:09.553818, 509.7275, 4201
18:04:09.555640, 509.73, 4314
18:04:09.555759, 509.7325, 4298
18:04:09.555804, 509.735, 4293
18:04:09.555842, 509.7375, 4279
18:04:09.565241, 509.74, 4284
18:04:09.565308, 509.7425, 4296
18:04:09.565343, 509.745, 4185
18:04:09.565375, 509.7475, 4283
18:04:09.583951, 509.75, 4273
18:04:09.584082, 509.7525, 4274
