18:01:00.027959, 320.1825, 4179
18:01:00.028037, 320.185, 4167
18:01:00.028061, 320.1875, 4187
18:01:00.028080, 320.19, 4176
18:01:00.028428, 320.1925, 4117
18:01:00.028457, 320.195, 4159
18:01:00.028473, 320.1975, 4176
18:01:00.028488, 320.2, 4157
18:01:00.030866, 320.2025, 4169
18:01:00.030915, 320.205, 4164
18:01:00.030937, 320.2075, 4152
18:01:00.030958, 320.21, 4093
18:01:00.039827, 320.2125, 4161
18:01:00.039921, 320.215, 4159
18:01:00.039970, 320.2175, 4140
18:01:00.040012, 320.22, 4125
18:01:00.064756, 320.2225, 4153
18:01:00.064808, 320.225, 4140
18:01:00.064857, 320.2275, 4065
18:01:00.064879, 320.23, 4158
18:01:00.065972, 320.2325, 4130
18:01:00.066004, 320.235, 4135
18:01:00.066019, 320.2375, 4145
18:01:00.066034, 320.24, 4149
18:01:00.066048, 320.2425, 4165
18:01:00.075231, 320.245, 4088
18:01:00.075277, 320.2475, 4185
18:01:00.075297, 320.25, 4162
18:01:00.075316, 320.2525, 4160
18:01:00.095739, 320.255, 4154
18:01:00.095802, 320.2575, 4155
18:01:00.095827, 320.26, 4157
18:01:00.095847, 320.2625, 4080
18:01:00.096189, 320.265, 4172
18:01:00.096211, 320.2675, 4151
18:01:00.096226, 320.27, 4173
18:01:00.096241, 320.2725, 4179
18:01:00.101190, 320.275, 4165
18:01:00.101256, 320.2775, 4191
18:01:00.101293, 320.28, 4100
18:01:00.101340, 320.2825, 4192
18:01:00.109775, 320.285, 4177
18:01:00.109860, 320.2875, 4152
18:01:00.109883, 320.29, 4177
18:01:00.109903, 320.2925, 4161
18:01:00.128915, 320.295, 4152
18:01:00.128975, 320.2975, 4096
18:01:00.128998, 320.3, 4186
18:01:00.129018, 320.3025, 4179
18:01:00.136618, 320.305, 4183
18:01:00.136729, 320.3075, 4178
18:01:00.136804, 320.31, 4165
18:01:00.136871, 320.3125, 4178
18:01:00.162755, 320.315, 4082
18:01:00.162857, 320.3175, 4166
18:01:00.162889, 320.32, 4175
18:01:00.162930, 320.3225, 4181
18:01:00.163370, 320.325, 4179
18:01:00.163400, 320.3275, 4188
18:01:00.163421, 320.33, 4168
18:01:00.163442, 320.3325, 4084
18:01:00.163801, 320.335, 4170
18:01:00.163828, 320.3375, 4183
18:01:00.163849, 320.34, 4170
18:01:00.163869, 320.3425, 4161
18:01:00.171913, 320.345, 4163
18:01:00.172007, 320.3475, 4148
18:01:00.172066, 320.35, 4090
18:01:00.172119, 320.3525, 4155
18:01:00.172171, 320.355, 4170
18:01:00.195681, 320.3575, 4184
18:01:00.195744, 320.36, 4181
18:01:00.195770, 320.3625, 4178
18:01:00.195790, 320.365, 4184
18:01:00.196975, 320.3675, 4139
18:01:00.197000, 320.37, 4197
18:01:00.197015, 320.3725, 4193
18:01:00.197029, 320.375, 4200
18:01:00.206305, 320.3775, 4181
18:01:00.206372, 320.38, 4122
18:01:00.206416, 320.3825, 4106
18:01:00.206455, 320.385, 4036
18:01:00.231883, 320.3875, 4113
18:01:00.231950, 320.39, 4099
18:01:00.231991, 320.3925, 4065
18:01:00.232013, 320.395, 4093
18:01:00.232372, 320.3975, 4136
18:01:00.232399, 320.4, 4139
18:01:00.232415, 320.4025, 4078
18:01:00.232430, 320.405, 4143
18:01:00.232698, 320.4075, 4152
18:01:00.232718, 320.41, 4153
18:01:00.232734, 320.4125, 4164
18:01:00.232749, 320.415, 4186
18:01:00.263382, 320.4175, 4184
18:01:00.263474, 320.42, 4118
18:01:00.263512, 320.4225, 4196
18:01:00.263541, 320.425, 4201
18:01:00.263571, 320.4275, 4191
18:01:00.264133, 320.43, 4174
18:01:00.264167, 320.4325, 4170
18:01:00.264191, 320.435, 4165
18:01:00.264214, 320.4375, 4147
18:01:00.267430, 320.44, 4182
18:01:00.267473, 320.4425, 4192
18:01:00.267501, 320.445, 4198
18:01:00.267529, 320.4475, 4170
18:01:00.277474, 320.45, 4189
18:01:00.277533, 320.4525, 4179
18:01:00.277676, 320.455, 4093
18:01:00.277787, 320.4575, 4190
18:01:00.310201, 320.46, 4180
18:01:00.310295, 320.4625, 4191
18:01:00.310320, 320.465, 4193
18:01:00.310341, 320.4675, 4182
18:01:00.310759, 320.47, 4169
18:01:00.310821, 320.4725, 4112
18:01:00.310851, 320.475, 4183
18:01:00.310876, 320.4775, 4192
18:01:00.311493, 320.48, 4178
18:01:00.311520, 320.4825, 4216
18:01:00.311537, 320.485, 4267
18:01:00.311555, 320.4875, 4343
18:01:00.334967, 320.49, 4324
18:01:00.335038, 320.4925, 4442
18:01:00.335078, 320.495, 4472
18:01:00.335112, 320.4975, 4456
18:01:00.335148, 320.5, 4365
18:01:00.337058, 320.5025, 4185
18:01:00.337131, 320.505, 3976
18:01:00.337171, 320.5075, 3651
18:01:00.337238, 320.51, 3417
18:01:00.337701, 320.5125, 3162
18:01:00.337736, 320.515, 2744
18:01:00.337766, 320.5175, 2251
18:01:00.337794, 320.52, 1957
18:01:00.371381, 320.5225, 1769
18:01:00.371448, 320.525, 1755
18:01:00.371516, 320.5275, 2163
18:01:00.371541, 320.53, 2780
18:01:00.397120, 320.5325, 3722
18:01:00.397173, 320.535, 4616
18:01:00.397207, 320.5375, 4993
18:01:00.397224, 320.54, 5122
18:01:00.397567, 320.5425, 5084
18:01:00.397598, 320.545, 4971
18:01:00.397625, 320.5475, 4798
18:01:00.397640, 320.55, 4696
18:01:00.398514, 320.5525, 4625
18:01:00.398544, 320.555, 4588
18:01:00.398606, 320.5575, 4520
18:01:00.398627, 320.56, 4380
18:01:00.399819, 320.5625, 4493
18:01:00.399844, 320.565, 4502
18:01:00.399861, 320.5675, 4506
18:01:00.399989, 320.57, 4519
18:01:00.400767, 320.5725, 4525
18:01:00.401220, 320.575, 4495
18:01:00.401457, 320.5775, 4422
18:01:00.421055, 320.58, 4474
18:01:00.422220, 320.5825, 4476
18:01:00.422257, 320.585, 4444
18:01:00.422279, 320.5875, 4430
18:01:00.422297, 320.59, 4411
18:01:00.422316, 320.5925, 4396
18:01:00.448124, 320.595, 4361
18:01:00.448181, 320.5975, 4398
18:01:00.448204, 320.6, 4381
18:01:00.448269, 320.6025, 4391
18:01:00.449112, 320.605, 4384
18:01:00.449182, 320.6075, 4374
18:01:00.449204, 320.61, 4362
18:01:00.449222, 320.6125, 4262
18:01:00.450164, 320.615, 4347
18:01:00.450187, 320.6175, 4334
18:01:00.450207, 320.62, 4335
18:01:00.450225, 320.6225, 4327
18:01:00.450990, 320.625, 4321
18:01:00.451492, 320.6275, 4316
18:01:00.451543, 320.63, 4229
18:01:00.451567, 320.6325, 4312
18:01:00.476343, 320.635, 4296
18:01:00.476409, 320.6375, 4290
18:01:00.476432, 320.64, 4274
18:01:00.476451, 320.6425, 4279
18:01:00.478520, 320.645, 4272
18:01:00.478583, 320.6475, 4197
18:01:00.478615, 320.65, 4276
18:01:00.478644, 320.6525, 4252
18:01:00.504737, 320.655, 4242
18:01:00.504784, 320.6575, 4242
18:01:00.504808, 320.66, 4249
18:01:00.504828, 320.6625, 4241
18:01:00.505508, 320.665, 4163
18:01:00.505541, 320.6675, 4242
18:01:00.505640, 320.67, 4230
18:01:00.505664, 320.6725, 4231
18:01:00.505694, 320.675, 4233
18:01:00.506985, 320.6775, 4231
18:01:00.507010, 320.68, 4212
18:01:00.507030, 320.6825, 4141
18:01:00.507047, 320.685, 4202
18:01:00.531550, 320.6875, 4173
18:01:00.531703, 320.69, 4170
18:01:00.531793, 320.6925, 4189
18:01:00.531858, 320.695, 4181
18:01:00.534207, 320.6975, 4192
18:01:00.534319, 320.7, 4107
18:01:00.534374, 320.7025, 4193
18:01:00.534410, 320.705, 4201
18:01:00.548057, 320.7075, 4190
18:01:00.548116, 320.71, 4186
18:01:00.548151, 320.7125, 4192
18:01:00.548169, 320.715, 4199
18:01:00.548832, 320.7175, 4126
18:01:00.548869, 320.72, 4180
18:01:00.548887, 320.7225, 4178
18:01:00.548907, 320.725, 4188
18:01:00.565448, 320.7275, 4160
18:01:00.565537, 320.73, 4162
18:01:00.565578, 320.7325, 4148
18:01:00.565615, 320.735, 4089
18:01:00.566152, 320.7375, 4173
18:01:00.566189, 320.74, 4150
18:01:00.566222, 320.7425, 4143
18:01:00.566250, 320.745, 4156
18:01:00.566279, 320.7475, 4159
18:01:00.573098, 320.75, 4165
18:01:00.573130, 320.7525, 4088
18:01:00.573147, 320.755, 4129
18:01:00.573162, 320.7575, 4122
18:01:00.596499, 320.76, 4129
18:01:00.596620, 320.7625, 4137
18:01:00.596685, 320.765, 4150
18:01:00.596720, 320.7675, 4170
18:01:00.599781, 320.77, 4127
18:01:00.599828, 320.7725, 4143
18:01:00.599857, 320.775, 4154
18:01:00.599884, 320.7775, 4134
18:01:00.608236, 320.78, 4156
18:01:00.608265, 320.7825, 4147
18:01:00.608281, 320.785, 4126
18:01:00.608295, 320.7875, 4082
18:01:00.631962, 320.79, 4155
18:01:00.632082, 320.7925, 4132
18:01:00.632117, 320.795, 4151
18:01:00.632145, 320.7975, 4152
18:01:00.632692, 320.8, 4140
18:01:00.632724, 320.8025, 4135
18:01:00.632747, 320.805, 4063
18:01:00.632768, 320.8075, 4142
18:01:00.634713, 320.81, 4133
18:01:00.634746, 320.8125, 4130
18:01:00.634769, 320.815, 4123
18:01:00.634791, 320.8175, 4134
18:01:00.663239, 320.82, 4134
18:01:00.663326, 320.8225, 4057
18:01:00.663350, 320.825, 4165
18:01:00.663370, 320.8275, 4178
18:01:00.663409, 320.83, 4170
18:01:00.663749, 320.8325, 4183
18:01:00.663777, 320.835, 4199
18:01:00.663830, 320.8375, 4186
18:01:00.663847, 320.84, 4134
18:01:00.669976, 320.8425, 4251
18:01:00.670033, 320.845, 4207
18:01:00.670062, 320.8475, 4206
18:01:00.670089, 320.85, 4236
18:01:00.680433, 320.8525, 4253
18:01:00.680512, 320.855, 4231
18:01:00.680544, 320.8575, 4166
18:01:00.680574, 320.86, 4246
18:01:00.700262, 320.8625, 4263
18:01:00.700325, 320.865, 4264
18:01:00.700350, 320.8675, 4259
18:01:00.700371, 320.87, 4261
18:01:00.704673, 320.8725, 4271
18:01:00.704724, 320.875, 4182
18:01:00.704751, 320.8775, 4270
18:01:00.704775, 320.88, 4275
18:01:00.714127, 320.8825, 4269
18:01:00.714218, 320.885, 4233
18:01:00.714253, 320.8875, 4255
18:01:00.714283, 320.89, 4273
18:01:00.730203, 320.8925, 4184
18:01:00.730387, 320.895, 4247
18:01:00.730430, 320.8975, 4223
18:01:00.730463, 320.9, 4237
18:01:00.731067, 320.9025, 4242
18:01:00.731119, 320.905, 4251
18:01:00.731144, 320.9075, 4223
18:01:00.731167, 320.91, 4126
18:01:00.739392, 320.9125, 4222
18:01:00.739422, 320.915, 4220
18:01:00.739438, 320.9175, 4203
18:01:00.739452, 320.92, 4212
18:01:00.739466, 320.9225, 4220
18:01:00.767919, 320.925, 4197
18:01:00.768050, 320.9275, 4101
18:01:00.768092, 320.93, 4194
18:01:00.768112, 320.9325, 4190
18:01:00.768412, 320.935, 4189
18:01:00.768434, 320.9375, 4179
18:01:00.768449, 320.94, 4206
18:01:00.768464, 320.9425, 4192
18:01:00.775111, 320.945, 4149
18:01:00.775141, 320.9475, 4149
18:01:00.775158, 320.95, 4175
18:01:00.775174, 320.9525, 4169
18:01:00.797825, 320.955, 4167
18:01:00.797893, 320.9575, 4176
18:01:00.797916, 320.96, 4188
18:01:00.797991, 320.9625, 4118
18:01:00.798454, 320.965, 4191
18:01:00.798500, 320.9675, 4210
18:01:00.798515, 320.97, 4191
18:01:00.798530, 320.9725, 4175
18:01:00.801006, 320.975, 4183
18:01:00.801051, 320.9775, 4190
18:01:00.801073, 320.98, 4108
18:01:00.801095, 320.9825, 4195
18:01:00.810037, 320.985, 4201
18:01:00.810130, 320.9875, 4178
18:01:00.810187, 320.99, 4178
18:01:00.810239, 320.9925, 4180
18:01:00.833107, 320.995, 4182
18:01:00.833203, 320.9975, 4094
18:01:00.833245, 321.0, 4193
18:01:00.833286, 321.0025, 4184
18:01:00.836300, 321.005, 4154
18:01:00.836357, 321.0075, 4148
18:01:00.836404, 321.01, 4169
18:01:00.836448, 321.0125, 4169
18:01:00.844643, 321.015, 4096
18:01:00.844716, 321.0175, 4180
18:01:00.844770, 321.02, 4199
18:01:00.844812, 321.0225, 4174
18:01:00.844863, 321.025, 4184
18:01:00.866329, 321.0275, 4181
18:01:00.866412, 321.03, 4186
18:01:00.866453, 321.0325, 4122
18:01:00.866492, 321.035, 4203
18:01:00.867073, 321.0375, 4186
18:01:00.867111, 321.04, 4195
18:01:00.867142, 321.0425, 4191
18:01:00.867169, 321.045, 4190
18:01:00.898909, 321.0475, 4182
18:01:00.898992, 321.05, 4098
18:01:00.899036, 321.0525, 4179
18:01:00.899077, 321.055, 4193
18:01:00.899687, 321.0575, 4170
18:01:00.899731, 321.06, 4166
18:01:00.899764, 321.0625, 4160
18:01:00.899795, 321.065, 4172
18:01:00.900266, 321.0675, 4086
18:01:00.900302, 321.07, 4167
18:01:00.900333, 321.0725, 4157
18:01:00.900363, 321.075, 4163
18:01:00.906067, 321.0775, 4168
18:01:00.906112, 321.08, 4190
18:01:00.906146, 321.0825, 4164
18:01:00.906178, 321.085, 4099
18:01:00.906210, 321.0875, 4175
18:01:00.932796, 321.09, 4188
18:01:00.932916, 321.0925, 4179
18:01:00.932959, 321.095, 4160
18:01:00.933004, 321.0975, 4184
18:01:00.933525, 321.1, 4186
18:01:00.933566, 321.1025, 4084
18:01:00.933594, 321.105, 4173
18:01:00.933621, 321.1075, 4149
18:01:00.940899, 321.11, 4156
18:01:00.940939, 321.1125, 4157
18:01:00.940968, 321.115, 4164
18:01:00.940994, 321.1175, 4186
18:01:00.964474, 321.12, 4138
18:01:00.964640, 321.1225, 4164
18:01:00.964683, 321.125, 4160
18:01:00.964731, 321.1275, 4132
18:01:00.965270, 321.13, 4117
18:01:00.965323, 321.1325, 4137
18:01:00.965353, 321.135, 4138
18:01:00.965381, 321.1375, 4075
18:01:00.967180, 321.14, 4162
18:01:00.967226, 321.1425, 4181
18:01:00.967258, 321.145, 4159
18:01:00.967286, 321.1475, 4148
18:01:01.000265, 321.15, 4177
18:01:01.000358, 321.1525, 4173
18:01:01.000399, 321.155, 4085
18:01:01.000435, 321.1575, 4180
18:01:01.000975, 321.16, 4161
18:01:01.001012, 321.1625, 4166
18:01:01.001075, 321.165, 4173
18:01:01.001107, 321.1675, 4150
18:01:01.001136, 321.17, 4153
18:01:01.002179, 321.1725, 4091
18:01:01.002217, 321.175, 4172
18:01:01.002248, 321.1775, 4170
18:01:01.002278, 321.18, 4172
18:01:01.011245, 321.1825, 4152
18:01:01.011326, 321.185, 4164
18:01:01.011366, 321.1875, 4171
18:01:01.011402, 321.19, 4101
18:01:01.034085, 321.1925, 4183
18:01:01.034143, 321.195, 4190
18:01:01.034167, 321.1975, 4170
18:01:01.034188, 321.2, 4148
18:01:01.034536, 321.2025, 4179
18:01:01.034559, 321.205, 4186
18:01:01.034575, 321.2075, 4101
18:01:01.034590, 321.21, 4183
18:01:01.036990, 321.2125, 4167
18:01:01.037016, 321.215, 4163
18:01:01.037032, 321.2175, 4157
18:01:01.037048, 321.22, 4168
18:01:01.046552, 321.2225, 4153
18:01:01.046596, 321.225, 4092
18:01:01.046618, 321.2275, 4161
18:01:01.046637, 321.23, 4144
18:01:01.067079, 321.2325, 4154
18:01:01.067218, 321.235, 4153
18:01:01.067281, 321.2375, 4168
18:01:01.067397, 321.24, 4142
18:01:01.072349, 321.2425, 4102
18:01:01.072427, 321.245, 4147
18:01:01.072484, 321.2475, 4150
18:01:01.072550, 321.25, 4145
18:01:01.081530, 321.2525, 4149
18:01:01.081600, 321.255, 4139
18:01:01.081636, 321.2575, 4162
18:01:01.081666, 321.26, 4085
18:01:01.081696, 321.2625, 4156
18:01:01.098749, 321.265, 4177
18:01:01.098903, 321.2675, 4156
18:01:01.098991, 321.27, 4138
18:01:01.099032, 321.2725, 4149
18:01:01.099601, 321.275, 4134
18:01:01.099649, 321.2775, 4085
18:01:01.099673, 321.28, 4165
18:01:01.099695, 321.2825, 4181
18:01:01.132134, 321.285, 4183
18:01:01.132212, 321.2875, 4163
18:01:01.132237, 321.29, 4159
18:01:01.132258, 321.2925, 4151
18:01:01.132641, 321.295, 4109
18:01:01.132672, 321.2975, 4158
18:01:01.132687, 321.3, 4144
18:01:01.132702, 321.3025, 4127
18:01:01.133214, 321.305, 4123
18:01:01.133242, 321.3075, 4125
18:01:01.133257, 321.31, 4104
18:01:01.133271, 321.3125, 4041
18:01:01.142648, 321.315, 4117
18:01:01.142754, 321.3175, 4125
18:01:01.142811, 321.32, 4116
18:01:01.142912, 321.3225, 4124
18:01:01.172077, 321.325, 4096
18:01:01.172166, 321.3275, 4097
18:01:01.172193, 321.33, 4053
18:01:01.172215, 321.3325, 4134
18:01:01.172538, 321.335, 4143
18:01:01.172564, 321.3375, 4156
18:01:01.172580, 321.34, 4129
18:01:01.172595, 321.3425, 4146
18:01:01.172610, 321.345, 4166
18:01:01.201320, 321.3475, 4119
18:01:01.201381, 321.35, 4165
18:01:01.201404, 321.3525, 4165
18:01:01.201424, 321.355, 4140
18:01:01.201767, 321.3575, 4142
18:01:01.201789, 321.36, 4171
18:01:01.201805, 321.3625, 4167
18:01:01.201819, 321.365, 4089
18:01:01.202078, 321.3675, 4182
18:01:01.202097, 321.37, 4160
18:01:01.202113, 321.3725, 4151
18:01:01.202127, 321.375, 4127
18:01:01.203099, 321.3775, 4174
18:01:01.203121, 321.38, 4168
18:01:01.203136, 321.3825, 4095
18:01:01.203151, 321.385, 4167
18:01:01.212272, 321.3875, 4163
18:01:01.212335, 321.39, 4158
18:01:01.212370, 321.3925, 4142
18:01:01.212402, 321.395, 4166
18:01:01.235924, 321.3975, 4167
18:01:01.236008, 321.4, 4094
18:01:01.236040, 321.4025, 4154
18:01:01.236068, 321.405, 4166
18:01:01.238331, 321.4075, 4182
18:01:01.238365, 321.41, 4161
18:01:01.238387, 321.4125, 4229
18:01:01.238408, 321.415, 4314
18:01:01.247324, 321.4175, 4299
18:01:01.247381, 321.42, 4420
18:01:01.247406, 321.4225, 4468
18:01:01.247439, 321.425, 4483
18:01:01.247462, 321.4275, 4483
18:01:01.271537, 321.43, 4351
18:01:01.271588, 321.4325, 4157
18:01:01.271610, 321.435, 3866
18:01:01.271628, 321.4375, 3652
18:01:01.271951, 321.44, 3322
18:01:01.271975, 321.4425, 2929
18:01:01.271990, 321.445, 2488
18:01:01.272004, 321.4475, 1965
18:01:01.299767, 321.45, 1669
18:01:01.299962, 321.4525, 1615
18:01:01.300009, 321.455, 1806
18:01:01.300031, 321.4575, 2356
18:01:01.300336, 321.46, 3256
18:01:01.300364, 321.4625, 4161
18:01:01.300379, 321.465, 4759
18:01:01.300394, 321.4675, 5005
18:01:01.300663, 321.47, 4926
18:01:01.300687, 321.4725, 4881
18:01:01.300703, 321.475, 4740
18:01:01.300717, 321.4775, 4626
18:01:01.308402, 321.48, 4565
18:01:01.308485, 321.4825, 4562
18:01:01.308510, 321.485, 4534
18:01:01.308531, 321.4875, 4440
18:01:01.333198, 321.49, 4553
18:01:01.333353, 321.4925, 4554
18:01:01.333383, 321.495, 4533
18:01:01.333403, 321.4975, 4540
18:01:01.333764, 321.5, 4560
18:01:01.333797, 321.5025, 4541
18:01:01.333813, 321.505, 4459
18:01:01.333827, 321.5075, 4518
18:01:01.334353, 321.51, 4515
18:01:01.334393, 321.5125, 4494
18:01:01.334411, 321.515, 4484
18:01:01.334425, 321.5175, 4490
18:01:01.370237, 321.52, 4453
18:01:01.370292, 321.5225, 4380
18:01:01.370314, 321.525, 4431
18:01:01.370332, 321.5275, 4421
18:01:01.370677, 321.53, 4383
18:01:01.370697, 321.5325, 4393
18:01:01.370713, 321.535, 4399
18:01:01.370727, 321.5375, 4384
18:01:01.370742, 321.54, 4308
18:01:01.371019, 321.5425, 4383
18:01:01.371088, 321.545, 4378
18:01:01.371109, 321.5475, 4352
18:01:01.371124, 321.55, 4356
18:01:01.378694, 321.5525, 4338
18:01:01.378765, 321.555, 4325
18:01:01.378811, 321.5575, 4250
18:01:01.378902, 321.56, 4328
18:01:01.400737, 321.5625, 4302
18:01:01.400847, 321.565, 4306
18:01:01.400879, 321.5675, 4288
18:01:01.400907, 321.57, 4309
18:01:01.416047, 321.5725, 4290
18:01:01.416107, 321.575, 4199
18:01:01.416126, 321.5775, 4280
18:01:01.416145, 321.58, 4261
18:01:01.435001, 321.5825, 4270
18:01:01.435110, 321.585, 4250
18:01:01.435146, 321.5875, 4239
18:01:01.435176, 321.59, 4241
18:01:01.435765, 321.5925, 4181
18:01:01.435829, 321.595, 4260
18:01:01.435857, 321.5975, 4242
18:01:01.435881, 321.6, 4254
18:01:01.436278, 321.6025, 4212
18:01:01.436315, 321.605, 4238
18:01:01.436338, 321.6075, 4233
18:01:01.436359, 321.61, 4165
18:01:01.439666, 321.6125, 4232
18:01:01.439732, 321.615, 4226
18:01:01.439768, 321.6175, 4223
18:01:01.439799, 321.62, 4194
18:01:01.439831, 321.6225, 4232
18:01:01.468643, 321.625, 4227
18:01:01.468716, 321.6275, 4165
18:01:01.468752, 321.63, 4241
18:01:01.468773, 321.6325, 4215
18:01:01.469141, 321.635, 4219
18:01:01.469172, 321.6375, 4206
18:01:01.469188, 321.64, 4208
18:01:01.469203, 321.6425, 4214
18:01:01.475064, 321.645, 4142
18:01:01.475126, 321.6475, 4211
18:01:01.475158, 321.65, 4196
18:01:01.475187, 321.6525, 4197
18:01:01.484236, 321.655, 4211
18:01:01.484281, 321.6575, 4203
18:01:01.484308, 321.66, 4197
18:01:01.484325, 321.6625, 4137
18:01:01.501669, 321.665, 4243
18:01:01.501747, 321.6675, 4223
18:01:01.501770, 321.67, 4220
18:01:01.501791, 321.6725, 4217
18:01:01.502162, 321.675, 4236
18:01:01.502195, 321.6775, 4235
18:01:01.502210, 321.68, 4166
18:01:01.502225, 321.6825, 4238
18:01:01.509594, 321.685, 4225
18:01:01.509653, 321.6875, 4219
18:01:01.509683, 321.69, 4226
18:01:01.509710, 321.6925, 4223
18:01:01.538082, 321.695, 4234
18:01:01.538148, 321.6975, 4140
18:01:01.538175, 321.7, 4226
18:01:01.538200, 321.7025, 4216
18:01:01.538223, 321.705, 4220
18:01:01.539386, 321.7075, 4221
18:01:01.539428, 321.71, 4207
18:01:01.539459, 321.7125, 4207
18:01:01.539488, 321.715, 4157
18:01:01.544740, 321.7175, 4230
18:01:01.544781, 321.72, 4212
18:01:01.544803, 321.7225, 4190
18:01:01.544824, 321.725, 4166
18:01:01.568576, 321.7275, 4198
18:01:01.568675, 321.73, 4166
18:01:01.568733, 321.7325, 4104
18:01:01.568760, 321.735, 4179
18:01:01.569304, 321.7375, 4155
18:01:01.569349, 321.74, 4144
18:01:01.569370, 321.7425, 4142
18:01:01.569389, 321.745, 4120
18:01:01.579656, 321.7475, 4106
18:01:01.579699, 321.75, 4008
18:01:01.579729, 321.7525, 4154
18:01:01.579755, 321.755, 4142
18:01:01.603278, 321.7575, 4115
18:01:01.603410, 321.76, 4125
18:01:01.603471, 321.7625, 4136
18:01:01.603527, 321.765, 4150
18:01:01.604338, 321.7675, 4068
18:01:01.604405, 321.77, 4148
18:01:01.604449, 321.7725, 4130
18:01:01.604492, 321.775, 4134
18:01:01.604535, 321.7775, 4128
18:01:01.634398, 321.78, 4139
18:01:01.634537, 321.7825, 4149
18:01:01.634581, 321.785, 4047
18:01:01.634631, 321.7875, 4181
18:01:01.635203, 321.79, 4181
18:01:01.635255, 321.7925, 4190
18:01:01.635286, 321.795, 4207
18:01:01.635314, 321.7975, 4200
18:01:01.635774, 321.8, 4197
18:01:01.635814, 321.8025, 4081
18:01:01.635843, 321.805, 4204
18:01:01.635872, 321.8075, 4225
18:01:01.640854, 321.81, 4222
18:01:01.640889, 321.8125, 4219
18:01:01.640906, 321.815, 4223
18:01:01.640921, 321.8175, 4215
18:01:01.668187, 321.82, 4149
18:01:01.668301, 321.8225, 4234
18:01:01.668334, 321.825, 4202
18:01:01.668360, 321.8275, 4185
18:01:01.669235, 321.83, 4185
18:01:01.669293, 321.8325, 4212
18:01:01.669318, 321.835, 4189
18:01:01.669343, 321.8375, 4109
18:01:01.670494, 321.84, 4199
18:01:01.670536, 321.8425, 4171
18:01:01.670571, 321.845, 4190
18:01:01.670603, 321.8475, 4191
18:01:01.670631, 321.85, 4167
18:01:01.676444, 321.8525, 4181
18:01:01.676509, 321.855, 4049
18:01:01.676546, 321.8575, 4168
18:01:01.676583, 321.86, 4191
18:01:01.701992, 321.8625, 4178
18:01:01.702136, 321.865, 4158
18:01:01.702184, 321.8675, 4165
18:01:01.702222, 321.87, 4161
18:01:01.702778, 321.8725, 4138
18:01:01.702826, 321.875, 4178
18:01:01.702895, 321.8775, 4177
18:01:01.702948, 321.88, 4164
18:01:01.711153, 321.8825, 4151
18:01:01.711206, 321.885, 4156
18:01:01.711235, 321.8875, 4167
18:01:01.711261, 321.89, 4101
18:01:01.735512, 321.8925, 4176
18:01:01.735628, 321.895, 4165
18:01:01.735690, 321.8975, 4179
18:01:01.735778, 321.9, 4172
18:01:01.736634, 321.9025, 4196
18:01:01.736705, 321.905, 4192
18:01:01.736747, 321.9075, 4114
18:01:01.736789, 321.91, 4165
18:01:01.737479, 321.9125, 4175
18:01:01.737535, 321.915, 4178
18:01:01.737578, 321.9175, 4161
18:01:01.737621, 321.92, 4173
18:01:01.768860, 321.9225, 4160
18:01:01.768950, 321.925, 4059
18:01:01.768986, 321.9275, 4150
18:01:01.769020, 321.93, 4139
18:01:01.769602, 321.9325, 4136
18:01:01.769650, 321.935, 4146
18:01:01.769678, 321.9375, 4142
18:01:01.769705, 321.94, 4176
18:01:01.772234, 321.9425, 4093
18:01:01.772288, 321.945, 4166
18:01:01.772321, 321.9475, 4176
18:01:01.772352, 321.95, 4174
18:01:01.772383, 321.9525, 4164
18:01:01.781121, 321.955, 4168
18:01:01.781164, 321.9575, 4164
18:01:01.781198, 321.96, 4099
18:01:01.781230, 321.9625, 4200
18:01:01.802307, 321.965, 4187
18:01:01.802479, 321.9675, 4158
18:01:01.802529, 321.97, 4146
18:01:01.802569, 321.9725, 4156
18:01:01.803226, 321.975, 4159
18:01:01.803283, 321.9775, 4093
18:01:01.803322, 321.98, 4176
18:01:01.803360, 321.9825, 4187
18:01:01.815861, 321.985, 4192
18:01:01.815908, 321.9875, 4169
18:01:01.815934, 321.99, 4177
18:01:01.815958, 321.9925, 4173
18:01:01.835820, 321.995, 4136
18:01:01.835943, 321.9975, 4178
18:01:01.836049, 322.0, 4168
18:01:01.836110, 322.0025, 4167
18:01:01.836922, 322.005, 4140
18:01:01.836988, 322.0075, 4167
18:01:01.837030, 322.01, 4164
18:01:01.837071, 322.0125, 4118
18:01:01.842638, 322.015, 4160
18:01:01.842728, 322.0175, 4165
18:01:01.842785, 322.02, 4162
18:01:01.842837, 322.0225, 4160
18:01:01.842933, 322.025, 4158
18:01:01.869591, 322.0275, 4159
18:01:01.869733, 322.03, 4079
18:01:01.869773, 322.0325, 4137
18:01:01.869861, 322.035, 4146
18:01:01.870511, 322.0375, 4157
18:01:01.870565, 322.04, 4163
18:01:01.870593, 322.0425, 4178
18:01:01.870617, 322.045, 4184
18:01:01.878189, 322.0475, 4122
18:01:01.878312, 322.05, 4178
18:01:01.878392, 322.0525, 4175
18:01:01.878465, 322.055, 4151
18:01:01.903971, 322.0575, 4137
18:01:01.904056, 322.06, 4148
18:01:01.904149, 322.0625, 4145
18:01:01.904180, 322.065, 4071
18:01:01.905452, 322.0675, 4180
18:01:01.905502, 322.07, 4161
18:01:01.905525, 322.0725, 4159
18:01:01.905546, 322.075, 4165
18:01:01.906565, 322.0775, 4177
18:01:01.906600, 322.08, 4176
18:01:01.906622, 322.0825, 4156
18:01:01.906644, 322.085, 4187
18:01:01.912421, 322.0875, 4184
18:01:01.912500, 322.09, 4202
18:01:01.912546, 322.0925, 4180
18:01:01.912587, 322.095, 4169
18:01:01.936568, 322.0975, 4157
18:01:01.936647, 322.1, 4087
18:01:01.936681, 322.1025, 4172
18:01:01.936702, 322.105, 4175
18:01:01.938101, 322.1075, 4169
18:01:01.938138, 322.11, 4174
18:01:01.938155, 322.1125, 4201
18:01:01.938169, 322.115, 4192
18:01:01.938184, 322.1175, 4103
18:01:01.947363, 322.12, 4188
18:01:01.947422, 322.1225, 4169
18:01:01.947458, 322.125, 4182
18:01:01.947491, 322.1275, 4171
18:01:01.970105, 322.13, 4174
18:01:01.970203, 322.1325, 4183
18:01:01.970237, 322.135, 4108
18:01:01.970268, 322.1375, 4184
18:01:01.970923, 322.14, 4186
18:01:01.970977, 322.1425, 4186
18:01:01.971000, 322.145, 4177
18:01:01.971021, 322.1475, 4184
18:01:01.982429, 322.15, 4166
18:01:01.982519, 322.1525, 4116
18:01:01.982563, 322.155, 4185
18:01:01.982605, 322.1575, 4184
18:01:02.007082, 322.16, 4183
18:01:02.007224, 322.1625, 4195
18:01:02.007262, 322.165, 4198
18:01:02.007292, 322.1675, 4165
18:01:02.007756, 322.17, 4097
18:01:02.007788, 322.1725, 4186
18:01:02.007811, 322.175, 4192
18:01:02.007833, 322.1775, 4180
18:01:02.007854, 322.18, 4167
18:01:02.008317, 322.1825, 4186
18:01:02.008347, 322.185, 4195
18:01:02.008369, 322.1875, 4092
18:01:02.008395, 322.19, 4140
18:01:02.017533, 322.1925, 4147
18:01:02.017581, 322.195, 4176
18:01:02.017621, 322.1975, 4182
18:01:02.017672, 322.2, 4163
18:01:02.042113, 322.2025, 4163
18:01:02.042238, 322.205, 4092
18:01:02.042286, 322.2075, 4172
18:01:02.042327, 322.21, 4170
18:01:02.043868, 322.2125, 4155
18:01:02.043953, 322.215, 4172
18:01:02.044009, 322.2175, 4180
18:01:02.044059, 322.22, 4155
18:01:02.052650, 322.2225, 4136
18:01:02.052700, 322.225, 4184
18:01:02.052721, 322.2275, 4162
18:01:02.052741, 322.23, 4153
18:01:02.070084, 322.2325, 4168
18:01:02.070208, 322.235, 4177
18:01:02.070250, 322.2375, 4172
18:01:02.070276, 322.24, 4100
18:01:02.070727, 322.2425, 4183
18:01:02.070765, 322.245, 4192
18:01:02.070782, 322.2475, 4166
18:01:02.070796, 322.25, 4161
18:01:02.078932, 322.2525, 4187
18:01:02.078992, 322.255, 4173
18:01:02.079031, 322.2575, 4094
18:01:02.079081, 322.26, 4181
18:01:02.079127, 322.2625, 4176
18:01:02.104179, 322.265, 4182
18:01:02.104263, 322.2675, 4169
18:01:02.104296, 322.27, 4165
18:01:02.104323, 322.2725, 4164
18:01:02.104790, 322.275, 4121
18:01:02.104824, 322.2775, 4174
18:01:02.104840, 322.28, 4189
18:01:02.104861, 322.2825, 4159
18:01:02.113464, 322.285, 4157
18:01:02.113546, 322.2875, 4189
18:01:02.113585, 322.29, 4169
18:01:02.113619, 322.2925, 4079
18:01:02.138270, 322.295, 4167
18:01:02.138403, 322.2975, 4150
18:01:02.138440, 322.3, 4159
18:01:02.138471, 322.3025, 4172
18:01:02.139150, 322.305, 4184
18:01:02.139201, 322.3075, 4165
18:01:02.139226, 322.31, 4076
18:01:02.139248, 322.3125, 4158
18:01:02.174724, 322.315, 4143
18:01:02.174874, 322.3175, 4118
18:01:02.174917, 322.32, 4136
18:01:02.174970, 322.3225, 4153
18:01:02.175023, 322.325, 4148
18:01:02.175599, 322.3275, 4122
18:01:02.175638, 322.33, 4175
18:01:02.175666, 322.3325, 4175
18:01:02.175692, 322.335, 4150
18:01:02.176401, 322.3375, 4152
18:01:02.176452, 322.34, 4172
18:01:02.176494, 322.3425, 4161
18:01:02.176534, 322.345, 4039
18:01:02.186362, 322.3475, 4163
18:01:02.186424, 322.35, 4160
18:01:02.186447, 322.3525, 4160
18:01:02.186504, 322.355, 4159
18:01:02.204526, 322.3575, 4186
18:01:02.204613, 322.36, 4171
18:01:02.204650, 322.3625, 4095
18:01:02.204675, 322.365, 4169
18:01:02.205070, 322.3675, 4171
18:01:02.205104, 322.37, 4159
18:01:02.205120, 322.3725, 4110
18:01:02.205136, 322.375, 4167
18:01:02.210170, 322.3775, 4159
18:01:02.210279, 322.38, 4074
18:01:02.210336, 322.3825, 4177
18:01:02.210406, 322.385, 4173
18:01:02.238167, 322.3875, 4177
18:01:02.238232, 322.39, 4176
18:01:02.238256, 322.3925, 4179
18:01:02.238291, 322.395, 4146
18:01:02.238688, 322.3975, 4039
18:01:02.238726, 322.4, 4121
18:01:02.238743, 322.4025, 4091
18:01:02.238760, 322.405, 4073
18:01:02.239180, 322.4075, 4076
18:01:02.239224, 322.41, 4112
18:01:02.239249, 322.4125, 4115
18:01:02.239273, 322.415, 4014
18:01:02.271439, 322.4175, 4138
18:01:02.271544, 322.42, 4166
18:01:02.271576, 322.4225, 4134
18:01:02.271603, 322.425, 4133
18:01:02.271629, 322.4275, 4148
18:01:02.272221, 322.43, 4157
18:01:02.272282, 322.4325, 4075
18:01:02.272308, 322.435, 4172
18:01:02.272330, 322.4375, 4182
18:01:02.272691, 322.44, 4175
18:01:02.272726, 322.4425, 4149
18:01:02.272746, 322.445, 4179
18:01:02.272766, 322.4475, 4194
18:01:02.279905, 322.45, 4152
18:01:02.279947, 322.4525, 4183
18:01:02.279968, 322.455, 4168
18:01:02.279988, 322.4575, 4182
18:01:02.288924, 322.46, 4191
18:01:02.289013, 322.4625, 4189
18:01:02.289040, 322.465, 4206
18:01:02.289060, 322.4675, 4098
18:01:02.310369, 322.47, 4179
18:01:02.310453, 322.4725, 4174
18:01:02.310483, 322.475, 4183
18:01:02.310562, 322.4775, 4190
18:01:02.311008, 322.48, 4194
18:01:02.311029, 322.4825, 4191
18:01:02.311043, 322.485, 4131
18:01:02.311057, 322.4875, 4201
18:01:02.314554, 322.49, 4207
18:01:02.314574, 322.4925, 4209
18:01:02.314589, 322.495, 4237
18:01:02.314602, 322.4975, 4319
18:01:02.342540, 322.5, 4372
18:01:02.342646, 322.5025, 4338
18:01:02.342682, 322.505, 4454
18:01:02.342714, 322.5075, 4472
18:01:02.342744, 322.51, 4498
18:01:02.343404, 322.5125, 4399
18:01:02.343452, 322.515, 4210
18:01:02.343484, 322.5175, 3984
18:01:02.343515, 322.52, 3625
18:01:02.349348, 322.5225, 3397
18:01:02.349391, 322.525, 3045
18:01:02.349407, 322.5275, 2654
18:01:02.349422, 322.53, 2152
18:01:02.373233, 322.5325, 1878
18:01:02.373352, 322.535, 1749
18:01:02.373398, 322.5375, 1818
18:01:02.373425, 322.54, 2264
18:01:02.374013, 322.5425, 3042
18:01:02.374059, 322.545, 3956
18:01:02.374089, 322.5475, 4581
18:01:02.374110, 322.55, 4918
18:01:02.384458, 322.5525, 4981
18:01:02.384500, 322.555, 4852
18:01:02.384516, 322.5575, 4791
18:01:02.384530, 322.56, 4642
18:01:02.406056, 322.5625, 4565
18:01:02.406161, 322.565, 4554
18:01:02.406193, 322.5675, 4524
18:01:02.406221, 322.57, 4491
18:01:02.406780, 322.5725, 4408
18:01:02.406837, 322.575, 4481
18:01:02.406906, 322.5775, 4484
18:01:02.406947, 322.58, 4503
18:01:02.410869, 322.5825, 4484
18:01:02.410915, 322.585, 4495
18:01:02.410931, 322.5875, 4460
18:01:02.410946, 322.59, 4368
18:01:02.410960, 322.5925, 4446
18:01:02.419633, 322.595, 4442
18:01:02.419683, 322.5975, 4401
18:01:02.419723, 322.6, 4377
18:01:02.419753, 322.6025, 4386
18:01:02.441592, 322.605, 4373
18:01:02.441742, 322.6075, 4280
18:01:02.441813, 322.61, 4358
18:01:02.441877, 322.6125, 4352
18:01:02.445892, 322.615, 4342
18:01:02.445935, 322.6175, 4335
18:01:02.445963, 322.62, 4369
18:01:02.445988, 322.6225, 4350
18:01:02.473895, 322.625, 4289
18:01:02.474056, 322.6275, 4316
18:01:02.474109, 322.63, 4314
18:01:02.474174, 322.6325, 4304
18:01:02.474861, 322.635, 4294
18:01:02.474963, 322.6375, 4289
18:01:02.475002, 322.64, 4292
18:01:02.475039, 322.6425, 4198
18:01:02.475752, 322.645, 4281
18:01:02.475810, 322.6475, 4279
18:01:02.475848, 322.65, 4270
18:01:02.475887, 322.6525, 4254
18:01:02.481245, 322.655, 4280
18:01:02.481282, 322.6575, 4275
18:01:02.481308, 322.66, 4200
18:01:02.481332, 322.6625, 4284
18:01:02.506540, 322.665, 4266
18:01:02.506631, 322.6675, 4220
18:01:02.506661, 322.67, 4238
18:01:02.506683, 322.6725, 4241
18:01:02.507167, 322.675, 4233
18:01:02.507215, 322.6775, 4153
18:01:02.507236, 322.68, 4238
18:01:02.507257, 322.6825, 4222
18:01:02.507277, 322.685, 4203
18:01:02.515816, 322.6875, 4200
18:01:02.515854, 322.69, 4211
18:01:02.515869, 322.6925, 4182
18:01:02.515883, 322.695, 4116
18:01:02.539541, 322.6975, 4210
18:01:02.539655, 322.7, 4221
18:01:02.539712, 322.7025, 4231
18:01:02.539764, 322.705, 4219
18:01:02.540624, 322.7075, 4206
18:01:02.540696, 322.71, 4203
18:01:02.540741, 322.7125, 4129
18:01:02.540783, 322.715, 4213
18:01:02.542456, 322.7175, 4198
18:01:02.542522, 322.72, 4187
18:01:02.542566, 322.7225, 4199
18:01:02.542609, 322.725, 4204
18:01:02.572824, 322.7275, 4194
18:01:02.572966, 322.73, 4137
18:01:02.573001, 322.7325, 4207
18:01:02.573033, 322.735, 4194
18:01:02.573608, 322.7375, 4203
18:01:02.573657, 322.74, 4171
18:01:02.573679, 322.7425, 4186
18:01:02.573698, 322.745, 4185
18:01:02.573718, 322.7475, 4096
18:01:02.577026, 322.75, 4202
18:01:02.577060, 322.7525, 4208
18:01:02.577080, 322.755, 4193
18:01:02.586394, 322.7575, 4190
18:01:02.586463, 322.76, 4223
18:01:02.586510, 322.7625, 4204
18:01:02.586555, 322.765, 4133
18:01:02.586601, 322.7675, 4205
18:01:02.606901, 322.77, 4208
18:01:02.606982, 322.7725, 4194
18:01:02.607004, 322.775, 4172
18:01:02.607025, 322.7775, 4185
18:01:02.623735, 322.78, 4169
18:01:02.624802, 322.7825, 4087
18:01:02.624883, 322.785, 4152
18:01:02.624914, 322.7875, 4132
18:01:02.644233, 322.79, 4139
18:01:02.644311, 322.7925, 4145
18:01:02.644336, 322.795, 4161
18:01:02.644356, 322.7975, 4177
18:01:02.644666, 322.8, 4148
18:01:02.644690, 322.8025, 4153
18:01:02.644731, 322.805, 4169
18:01:02.644748, 322.8075, 4170
18:01:02.645230, 322.81, 4148
18:01:02.645254, 322.8125, 4182
18:01:02.645269, 322.815, 4160
18:01:02.645284, 322.8175, 4094
18:01:02.647737, 322.82, 4197
18:01:02.647810, 322.8225, 4172
18:01:02.647865, 322.825, 4147
18:01:02.647915, 322.8275, 4147
18:01:02.657736, 322.83, 4148
18:01:02.657813, 322.8325, 4146
18:01:02.657900, 322.835, 4045
18:01:02.657931, 322.8375, 4153
18:01:02.679252, 322.84, 4136
18:01:02.679318, 322.8425, 4149
18:01:02.679344, 322.845, 4144
18:01:02.679363, 322.8475, 4147
18:01:02.682217, 322.85, 4155
18:01:02.682246, 322.8525, 4103
18:01:02.682262, 322.855, 4176
18:01:02.682277, 322.8575, 4186
18:01:02.682291, 322.86, 4168
18:01:02.691981, 322.8625, 4159
18:01:02.692066, 322.865, 4189
18:01:02.692089, 322.8675, 4187
18:01:02.692109, 322.87, 4114
18:01:02.711082, 322.8725, 4216
18:01:02.711219, 322.875, 4207
18:01:02.711260, 322.8775, 4197
18:01:02.711321, 322.88, 4180
18:01:02.712374, 322.8825, 4200
18:01:02.712454, 322.885, 4207
18:01:02.712510, 322.8875, 4144
18:01:02.712561, 322.89, 4238
18:01:02.718147, 322.8925, 4253
18:01:02.718283, 322.895, 4256
18:01:02.718380, 322.8975, 4236
18:01:02.718466, 322.9, 4228
18:01:02.740725, 322.9025, 4221
18:01:02.740834, 322.905, 4137
18:01:02.740868, 322.9075, 4224
18:01:02.740895, 322.91, 4236
18:01:02.743482, 322.9125, 4226
18:01:02.743554, 322.915, 4211
18:01:02.743592, 322.9175, 4225
18:01:02.743626, 322.92, 4214
18:01:02.752340, 322.9225, 4129
18:01:02.752429, 322.925, 4203
18:01:02.752470, 322.9275, 4183
18:01:02.752505, 322.93, 4176
18:01:02.752539, 322.9325, 4186
18:01:02.775139, 322.935, 4203
18:01:02.775233, 322.9375, 4190
18:01:02.775259, 322.94, 4124
18:01:02.775279, 322.9425, 4187
18:01:02.775622, 322.945, 4205
18:01:02.775648, 322.9475, 4191
18:01:02.775663, 322.95, 4174
18:01:02.775677, 322.9525, 4218
18:01:02.778075, 322.955, 4205
18:01:02.778111, 322.9575, 4124
18:01:02.778125, 322.96, 4209
18:01:02.778140, 322.9625, 4189
18:01:02.812367, 322.965, 4194
18:01:02.812431, 322.9675, 4173
18:01:02.812455, 322.97, 4199
18:01:02.812476, 322.9725, 4215
18:01:02.812822, 322.975, 4166
18:01:02.812850, 322.9775, 4204
18:01:02.812866, 322.98, 4208
18:01:02.812881, 322.9825, 4194
18:01:02.813149, 322.985, 4189
18:01:02.813169, 322.9875, 4197
18:01:02.813184, 322.99, 4205
18:01:02.813199, 322.9925, 4124
18:01:02.822769, 322.995, 4195
18:01:02.822814, 322.9975, 4207
18:01:02.822834, 323.0, 4187
18:01:02.822874, 323.0025, 4198
18:01:02.846483, 323.005, 4200
18:01:02.846545, 323.0075, 4202
18:01:02.846570, 323.01, 4107
18:01:02.846621, 323.0125, 4206
18:01:02.848105, 323.015, 4198
18:01:02.848131, 323.0175, 4204
18:01:02.848147, 323.02, 4217
18:01:02.848163, 323.0225, 4202
18:01:02.848179, 323.025, 4195
18:01:02.874417, 323.0275, 4181
18:01:02.874519, 323.03, 4215
18:01:02.874545, 323.0325, 4199
18:01:02.874565, 323.035, 4197
18:01:02.875044, 323.0375, 4199
18:01:02.875096, 323.04, 4218
18:01:02.875124, 323.0425, 4211
18:01:02.875150, 323.045, 4136
18:01:02.875615, 323.0475, 4209
18:01:02.875655, 323.05, 4214
18:01:02.875682, 323.0525, 4195
18:01:02.875708, 323.055, 4216
18:01:02.883715, 323.0575, 4236
18:01:02.883774, 323.06, 4225
18:01:02.883803, 323.0625, 4144
18:01:02.883830, 323.065, 4188
18:01:02.908118, 323.0675, 4200
18:01:02.908250, 323.07, 4178
18:01:02.908279, 323.0725, 4173
18:01:02.908299, 323.075, 4184
18:01:02.909538, 323.0775, 4175
18:01:02.909579, 323.08, 4116
18:01:02.909595, 323.0825, 4192
18:01:02.909610, 323.085, 4175
18:01:02.918761, 323.0875, 4172
18:01:02.918873, 323.09, 4186
18:01:02.918936, 323.0925, 4186
18:01:02.918988, 323.095, 4203
18:01:02.919038, 323.0975, 4113
18:01:02.941953, 323.1, 4204
18:01:02.942033, 323.1025, 4178
18:01:02.942058, 323.105, 4178
18:01:02.942116, 323.1075, 4170
18:01:02.942460, 323.11, 4190
18:01:02.942491, 323.1125, 4200
18:01:02.942507, 323.115, 4120
18:01:02.942522, 323.1175, 4205
18:01:02.944330, 323.12, 4161
18:01:02.944364, 323.1225, 4150
18:01:02.944379, 323.125, 4190
18:01:02.944394, 323.1275, 4187
18:01:02.980535, 323.13, 4214
18:01:02.980635, 323.1325, 4134
18:01:02.980670, 323.135, 4187
18:01:02.980694, 323.1375, 4182
18:01:02.980970, 323.14, 4178
18:01:02.980993, 323.1425, 4181
18:01:02.981008, 323.145, 4196
18:01:02.981022, 323.1475, 4171
18:01:02.981282, 323.15, 4099
18:01:02.981301, 323.1525, 4183
18:01:02.981316, 323.155, 4195
18:01:02.981330, 323.1575, 4171
18:01:02.981345, 323.16, 4140
18:01:02.988536, 323.1625, 4175
18:01:02.988598, 323.165, 4162
18:01:02.988635, 323.1675, 4108
18:01:02.988670, 323.17, 4175
18:01:03.012319, 323.1725, 4173
18:01:03.012393, 323.175, 4169
18:01:03.012420, 323.1775, 4178
18:01:03.012443, 323.18, 4181
18:01:03.012842, 323.1825, 4168
18:01:03.012871, 323.185, 4097
18:01:03.012888, 323.1875, 4168
18:01:03.012904, 323.19, 4148
18:01:03.023562, 323.1925, 4162
18:01:03.023650, 323.195, 4169
18:01:03.023699, 323.1975, 4195
18:01:03.023744, 323.2, 4209
18:01:03.055928, 323.2025, 4150
18:01:03.055987, 323.205, 4202
18:01:03.056010, 323.2075, 4194
18:01:03.056041, 323.21, 4165
18:01:03.056714, 323.2125, 4157
18:01:03.056756, 323.215, 4158
18:01:03.056778, 323.2175, 4181
18:01:03.056840, 323.22, 4126
18:01:03.057811, 323.2225, 4178
18:01:03.057858, 323.225, 4172
18:01:03.057879, 323.2275, 4161
18:01:03.057899, 323.23, 4173
18:01:03.059023, 323.2325, 4212
18:01:03.059091, 323.235, 4198
18:01:03.059118, 323.2375, 4132
18:01:03.059145, 323.24, 4205
18:01:03.077939, 323.2425, 4201
18:01:03.078013, 323.245, 4196
18:01:03.078055, 323.2475, 4204
18:01:03.078097, 323.25, 4200
18:01:03.078170, 323.2525, 4190
18:01:03.084827, 323.255, 4151
18:01:03.084861, 323.2575, 4184
18:01:03.084878, 323.26, 4190
18:01:03.084893, 323.2625, 4192
18:01:03.109761, 323.265, 4194
18:01:03.109903, 323.2675, 4201
18:01:03.109929, 323.27, 4182
18:01:03.109945, 323.2725, 4116
18:01:03.110280, 323.275, 4197
18:01:03.110311, 323.2775, 4197
18:01:03.110326, 323.28, 4188
18:01:03.110340, 323.2825, 4186
18:01:03.121749, 323.285, 4196
18:01:03.121794, 323.2875, 4171
18:01:03.121810, 323.29, 4095
18:01:03.121825, 323.2925, 4153
18:01:03.122847, 323.295, 4165
18:01:03.122868, 323.2975, 4157
18:01:03.122883, 323.3, 4151
18:01:03.122898, 323.3025, 4163
18:01:03.152429, 323.305, 4146
18:01:03.152485, 323.3075, 4041
18:01:03.152505, 323.31, 4169
18:01:03.152524, 323.3125, 4155
18:01:03.152840, 323.315, 4153
18:01:03.152863, 323.3175, 4163
18:01:03.152877, 323.32, 4158
18:01:03.152891, 323.3225, 4191
18:01:03.154302, 323.325, 4108
18:01:03.154321, 323.3275, 4183
18:01:03.154335, 323.33, 4170
18:01:03.154348, 323.3325, 4156
18:01:03.154362, 323.335, 4142
18:01:03.179061, 323.3375, 4127
18:01:03.179201, 323.34, 4106
18:01:03.179234, 323.3425, 4031
18:01:03.179262, 323.345, 4103
18:01:03.180422, 323.3475, 4090
18:01:03.180500, 323.35, 4086
18:01:03.180554, 323.3525, 4070
18:01:03.180604, 323.355, 4131
18:01:03.181507, 323.3575, 4131
18:01:03.181574, 323.36, 4036
18:01:03.181626, 323.3625, 4153
18:01:03.181675, 323.365, 4143
18:01:03.209383, 323.3675, 4133
18:01:03.209485, 323.37, 4158
18:01:03.209509, 323.3725, 4183
18:01:03.209530, 323.375, 4178
18:01:03.209951, 323.3775, 4120
18:01:03.209985, 323.38, 4162
18:01:03.210001, 323.3825, 4163
18:01:03.210017, 323.385, 4166
18:01:03.216171, 323.3875, 4187
18:01:03.216236, 323.39, 4176
18:01:03.216272, 323.3925, 4160
18:01:03.216305, 323.395, 4113
18:01:03.224796, 323.3975, 4199
18:01:03.224843, 323.4, 4183
18:01:03.224873, 323.4025, 4210
18:01:03.224892, 323.405, 4180
18:01:03.247599, 323.4075, 4195
18:01:03.247728, 323.41, 4180
18:01:03.247768, 323.4125, 4106
18:01:03.247798, 323.415, 4181
18:01:03.251200, 323.4175, 4185
18:01:03.251261, 323.42, 4189
18:01:03.251298, 323.4225, 4152
18:01:03.251332, 323.425, 4169
18:01:03.251366, 323.4275, 4155
18:01:03.259515, 323.43, 4125
18:01:03.259580, 323.4325, 4164
18:01:03.259602, 323.435, 4137
18:01:03.259624, 323.4375, 4141
18:01:03.276738, 323.44, 4172
18:01:03.276838, 323.4425, 4282
18:01:03.276875, 323.445, 4357
18:01:03.276903, 323.4475, 4323
18:01:03.277436, 323.45, 4414
18:01:03.277487, 323.4525, 4438
18:01:03.277508, 323.455, 4418
18:01:03.277528, 323.4575, 4290
18:01:03.286082, 323.46, 4115
18:01:03.286123, 323.4625, 3876
18:01:03.286139, 323.465, 3518
18:01:03.286153, 323.4675, 3336
18:01:03.311673, 323.47, 2987
18:01:03.311788, 323.4725, 2568
18:01:03.311831, 323.475, 2065
18:01:03.311902, 323.4775, 1816
18:01:03.312347, 323.48, 1703
18:01:03.312386, 323.4825, 1830
18:01:03.312408, 323.485, 2321
18:01:03.312428, 323.4875, 3139
18:01:03.320897, 323.49, 4094
18:01:03.320932, 323.4925, 4758
18:01:03.320952, 323.495, 5036
18:01:03.320970, 323.4975, 5051
18:01:03.347116, 323.5, 4880
18:01:03.347265, 323.5025, 4811
18:01:03.347327, 323.505, 4676
18:01:03.347403, 323.5075, 4582
18:01:03.348501, 323.51, 4586
18:01:03.348579, 323.5125, 4561
18:01:03.348632, 323.515, 4507
18:01:03.348683, 323.5175, 4481
18:01:03.348734, 323.52, 4506
18:01:03.349643, 323.5225, 4517
18:01:03.349708, 323.525, 4500
18:01:03.349760, 323.5275, 4487
18:01:03.349810, 323.53, 4524
18:01:03.355807, 323.5325, 4504
18:01:03.355829, 323.535, 4416
18:01:03.355844, 323.5375, 4464
18:01:03.355859, 323.54, 4445
18:01:03.377121, 323.5425, 4433
18:01:03.377208, 323.545, 4423
18:01:03.377236, 323.5475, 4422
18:01:03.377256, 323.55, 4420
18:01:03.382114, 323.5525, 4362
18:01:03.382169, 323.555, 4392
18:01:03.382195, 323.5575, 4376
18:01:03.382218, 323.56, 4349
18:01:03.391196, 323.5625, 4342
18:01:03.391242, 323.565, 4338
18:01:03.391265, 323.5675, 4330
18:01:03.391284, 323.57, 4250
18:01:03.410771, 323.5725, 4314
18:01:03.410861, 323.575, 4325
18:01:03.410891, 323.5775, 4310
18:01:03.410913, 323.58, 4311
18:01:03.411294, 323.5825, 4321
18:01:03.411327, 323.585, 4305
18:01:03.411344, 323.5875, 4218
18:01:03.411359, 323.59, 4296
18:01:03.416965, 323.5925, 4299
18:01:03.417003, 323.595, 4286
18:01:03.417019, 323.5975, 4261
18:01:03.417034, 323.6, 4288
18:01:03.446740, 323.6025, 4276
18:01:03.446809, 323.605, 4181
18:01:03.446833, 323.6075, 4270
18:01:03.446894, 323.61, 4261
18:01:03.446918, 323.6125, 4272
18:01:03.447251, 323.615, 4247
18:01:03.447273, 323.6175, 4248
18:01:03.447289, 323.62, 4218
18:01:03.447304, 323.6225, 4141
18:01:03.452090, 323.625, 4218
18:01:03.452144, 323.6275, 4203
18:01:03.452169, 323.63, 4208
18:01:03.452192, 323.6325, 4216
18:01:03.461453, 323.635, 4186
18:01:03.461531, 323.6375, 4218
18:01:03.461563, 323.64, 4139
18:01:03.461604, 323.6425, 4216
18:01:03.482381, 323.645, 4221
18:01:03.482462, 323.6475, 4222
18:01:03.482497, 323.65, 4221
18:01:03.482528, 323.6525, 4234
18:01:03.487299, 323.655, 4225
18:01:03.487331, 323.6575, 4151
18:01:03.487352, 323.66, 4218
18:01:03.487371, 323.6625, 4220
18:01:03.511597, 323.665, 4216
18:01:03.511724, 323.6675, 4186
18:01:03.511764, 323.67, 4193
18:01:03.511794, 323.6725, 4190
18:01:03.512284, 323.675, 4101
18:01:03.512332, 323.6775, 4196
18:01:03.512355, 323.68, 4209
18:01:03.512377, 323.6825, 4208
18:01:03.512399, 323.685, 4192
18:01:03.513207, 323.6875, 4197
18:01:03.513242, 323.69, 4202
18:01:03.513264, 323.6925, 4115
18:01:03.513285, 323.695, 4210
18:01:03.522425, 323.6975, 4202
18:01:03.522505, 323.7, 4211
18:01:03.522546, 323.7025, 4200
18:01:03.522583, 323.705, 4207
18:01:03.545107, 323.7075, 4204
18:01:03.545187, 323.71, 4127
18:01:03.545212, 323.7125, 4207
18:01:03.545249, 323.715, 4220
18:01:03.560590, 323.7175, 4206
18:01:03.560693, 323.72, 4196
18:01:03.560724, 323.7225, 4207
18:01:03.560756, 323.725, 4208
18:01:03.578042, 323.7275, 4156
18:01:03.578143, 323.73, 4189
18:01:03.578166, 323.7325, 4198
18:01:03.578185, 323.735, 4202
18:01:03.578637, 323.7375, 4188
18:01:03.578670, 323.74, 4205
18:01:03.578686, 323.7425, 4190
18:01:03.578700, 323.745, 4073
18:01:03.579058, 323.7475, 4208
18:01:03.579110, 323.75, 4194
18:01:03.579135, 323.7525, 4196
18:01:03.579159, 323.755, 4199
18:01:03.579183, 323.7575, 4202
18:01:03.583124, 323.76, 4205
18:01:03.583159, 323.7625, 4103
18:01:03.583175, 323.765, 4168
18:01:03.583189, 323.7675, 4156
18:01:03.615958, 323.77, 4148
18:01:03.616062, 323.7725, 4148
18:01:03.616100, 323.775, 4162
18:01:03.616128, 323.7775, 4137
18:01:03.616726, 323.78, 4127
18:01:03.616766, 323.7825, 4186
18:01:03.616795, 323.785, 4175
18:01:03.616862, 323.7875, 4177
18:01:03.618288, 323.79, 4192
18:01:03.618324, 323.7925, 4185
18:01:03.618352, 323.795, 4177
18:01:03.618379, 323.7975, 4113
18:01:03.627430, 323.8, 4193
18:01:03.627486, 323.8025, 4190
18:01:03.627507, 323.805, 4198
18:01:03.627525, 323.8075, 4208
18:01:03.648978, 323.81, 4207
18:01:03.649083, 323.8125, 4182
18:01:03.649123, 323.815, 4132
18:01:03.649155, 323.8175, 4217
18:01:03.649700, 323.82, 4233
18:01:03.649735, 323.8225, 4230
18:01:03.649759, 323.825, 4235
18:01:03.649783, 323.8275, 4227
18:01:03.681405, 323.83, 4218
18:01:03.681465, 323.8325, 4141
18:01:03.681485, 323.835, 4203
18:01:03.681504, 323.8375, 4202
18:01:03.681849, 323.84, 4206
18:01:03.681869, 323.8425, 4209
18:01:03.681883, 323.845, 4223
18:01:03.681897, 323.8475, 4243
18:01:03.681911, 323.85, 4162
18:01:03.682163, 323.8525, 4219
18:01:03.682185, 323.855, 4227
18:01:03.682200, 323.8575, 4199
18:01:03.682214, 323.86, 4193
18:01:03.688990, 323.8625, 4199
18:01:03.689073, 323.865, 4194
18:01:03.689124, 323.8675, 4133
18:01:03.689170, 323.87, 4224
18:01:03.713628, 323.8725, 4212
18:01:03.713734, 323.875, 4210
18:01:03.713761, 323.8775, 4190
18:01:03.713784, 323.88, 4193
18:01:03.714474, 323.8825, 4195
18:01:03.714503, 323.885, 4121
18:01:03.714519, 323.8875, 4199
18:01:03.714534, 323.89, 4194
18:01:03.723441, 323.8925, 4188
18:01:03.723526, 323.895, 4180
18:01:03.723587, 323.8975, 4171
18:01:03.723637, 323.9, 4186
18:01:03.746962, 323.9025, 4117
18:01:03.747057, 323.905, 4214
18:01:03.747112, 323.9075, 4210
18:01:03.747146, 323.91, 4210
18:01:03.747228, 323.9125, 4184
18:01:03.747731, 323.915, 4185
18:01:03.747770, 323.9175, 4189
18:01:03.747793, 323.92, 4122
18:01:03.747816, 323.9225, 4201
18:01:03.749457, 323.925, 4188
18:01:03.749492, 323.9275, 4200
18:01:03.749515, 323.93, 4186
18:01:03.749537, 323.9325, 4204
18:01:03.758799, 323.935, 4205
18:01:03.758941, 323.9375, 4108
18:01:03.759003, 323.94, 4195
18:01:03.759033, 323.9425, 4198
18:01:03.783262, 323.945, 4186
18:01:03.783319, 323.9475, 4195
18:01:03.783342, 323.95, 4183
18:01:03.783361, 323.9525, 4194
18:01:03.784747, 323.955, 4135
18:01:03.784792, 323.9575, 4191
18:01:03.784823, 323.96, 4217
18:01:03.784852, 323.9625, 4201
18:01:03.793847, 323.965, 4194
18:01:03.793915, 323.9675, 4192
18:01:03.793946, 323.97, 4168
18:01:03.793974, 323.9725, 4104
18:01:03.817057, 323.975, 4192
18:01:03.817168, 323.9775, 4208
18:01:03.817211, 323.98, 4182
18:01:03.817246, 323.9825, 4186
18:01:03.817872, 323.985, 4197
18:01:03.817913, 323.9875, 4183
18:01:03.817940, 323.99, 4097
18:01:03.817966, 323.9925, 4177
18:01:03.817991, 323.995, 4152
18:01:03.828679, 323.9975, 4166
18:01:03.828774, 324.0, 4155
18:01:03.828798, 324.0025, 4174
18:01:03.828818, 324.005, 4172
18:01:03.847266, 324.0075, 4132
18:01:03.847361, 324.01, 4173
18:01:03.847396, 324.0125, 4171
18:01:03.847427, 324.015, 4183
18:01:03.848032, 324.0175, 4180
18:01:03.848084, 324.02, 4161
18:01:03.848107, 324.0225, 4166
18:01:03.848129, 324.025, 4089
18:01:03.855083, 324.0275, 4180
18:01:03.855157, 324.03, 4152
18:01:03.855200, 324.0325, 4164
18:01:03.855240, 324.035, 4153
18:01:03.879887, 324.0375, 4167
18:01:03.879934, 324.04, 4142
18:01:03.879956, 324.0425, 4062
18:01:03.879974, 324.045, 4135
18:01:03.880321, 324.0475, 4135
18:01:03.880351, 324.05, 4141
18:01:03.880366, 324.0525, 4138
18:01:03.880380, 324.055, 4164
18:01:03.890095, 324.0575, 4160
18:01:03.890163, 324.06, 4080
18:01:03.890194, 324.0625, 4155
18:01:03.890223, 324.065, 4135
18:01:03.914132, 324.0675, 4162
18:01:03.914244, 324.07, 4152
18:01:03.914304, 324.0725, 4153
18:01:03.914406, 324.075, 4112
18:01:03.914949, 324.0775, 4066
18:01:03.914991, 324.08, 4144
18:01:03.915015, 324.0825, 4138
18:01:03.915039, 324.085, 4112
18:01:03.915061, 324.0875, 4144
18:01:03.915949, 324.09, 4158
18:01:03.915983, 324.0925, 4155
18:01:03.916005, 324.095, 4085
18:01:03.916027, 324.0975, 4158
18:01:03.924648, 324.1, 4160
18:01:03.924703, 324.1025, 4168
18:01:03.924748, 324.105, 4135
18:01:03.924784, 324.1075, 4173
18:01:03.950221, 324.11, 4165
18:01:03.950330, 324.1125, 4085
18:01:03.950372, 324.115, 4138
18:01:03.950491, 324.1175, 4150
18:01:03.951026, 324.12, 4117
18:01:03.951066, 324.1225, 4105
18:01:03.951094, 324.125, 4165
18:01:03.951122, 324.1275, 4155
18:01:03.959943, 324.13, 4108
18:01:03.960001, 324.1325, 4143
18:01:03.960037, 324.135, 4145
18:01:03.960071, 324.1375, 4139
18:01:03.980886, 324.14, 4130
18:01:03.980971, 324.1425, 4149
18:01:03.981003, 324.145, 4157
18:01:03.981029, 324.1475, 4067
18:01:03.981585, 324.15, 4166
18:01:03.981626, 324.1525, 4143
18:01:03.981647, 324.155, 4143
18:01:03.981666, 324.1575, 4135
18:01:03.986481, 324.16, 4146
18:01:03.986577, 324.1625, 4129
18:01:03.986630, 324.165, 4069
18:01:03.986680, 324.1675, 4162
18:01:03.986730, 324.17, 4129
18:01:04.013747, 324.1725, 4119
18:01:04.013836, 324.175, 4140
18:01:04.013858, 324.1775, 4129
18:01:04.013875, 324.18, 4136
18:01:04.014293, 324.1825, 4087
18:01:04.014325, 324.185, 4151
18:01:04.014341, 324.1875, 4148
18:01:04.014356, 324.19, 4138
18:01:04.021467, 324.1925, 4133
18:01:04.021573, 324.195, 4158
18:01:04.021666, 324.1975, 4142
18:01:04.021763, 324.2, 4064
18:01:04.030040, 324.2025, 4137
18:01:04.030177, 324.205, 4144
18:01:04.030207, 324.2075, 4115
18:01:04.030228, 324.21, 4124
18:01:04.047229, 324.2125, 4133
18:01:04.047311, 324.215, 4111
18:01:04.047336, 324.2175, 4036
18:01:04.047355, 324.22, 4119
18:01:04.047717, 324.2225, 4141
18:01:04.047744, 324.225, 4148
18:01:04.047760, 324.2275, 4161
18:01:04.047775, 324.23, 4153
18:01:04.080424, 324.2325, 4129
18:01:04.080552, 324.235, 4043
18:01:04.080586, 324.2375, 4138
18:01:04.080619, 324.24, 4120
18:01:04.081094, 324.2425, 4119
18:01:04.081136, 324.245, 4126
18:01:04.081155, 324.2475, 4115
18:01:04.081174, 324.25, 4127
18:01:04.081193, 324.2525, 4061
18:01:04.081953, 324.255, 4125
18:01:04.081989, 324.2575, 4133
18:01:04.082005, 324.26, 4128
18:01:04.082019, 324.2625, 4142
18:01:04.091100, 324.265, 4141
18:01:04.091144, 324.2675, 4140
18:01:04.091160, 324.27, 4054
18:01:04.091175, 324.2725, 4160
18:01:04.117420, 324.275, 4151
18:01:04.117507, 324.2775, 4155
18:01:04.117538, 324.28, 4168
18:01:04.117566, 324.2825, 4181
18:01:04.118065, 324.285, 4146
18:01:04.118096, 324.2875, 4080
18:01:04.118118, 324.29, 4189
18:01:04.118140, 324.2925, 4167
18:01:04.125886, 324.295, 4159
18:01:04.125929, 324.2975, 4163
18:01:04.125956, 324.3, 4163
18:01:04.125981, 324.3025, 4172
18:01:04.150514, 324.305, 4061
18:01:04.150597, 324.3075, 4150
18:01:04.150630, 324.31, 4151
18:01:04.150660, 324.3125, 4171
18:01:04.150706, 324.315, 4139
18:01:04.151294, 324.3175, 4111
18:01:04.151336, 324.32, 4114
18:01:04.151363, 324.3225, 4027
18:01:04.151389, 324.325, 4126
18:01:04.152130, 324.3275, 4111
18:01:04.152165, 324.33, 4138
18:01:04.152192, 324.3325, 4136
18:01:04.152217, 324.335, 4148
18:01:04.160810, 324.3375, 4154
18:01:04.160838, 324.34, 4099
18:01:04.160853, 324.3425, 4190
18:01:04.160868, 324.345, 4187
18:01:04.185693, 324.3475, 4197
18:01:04.185797, 324.35, 4181
18:01:04.185827, 324.3525, 4196
18:01:04.185853, 324.355, 4199
18:01:04.187075, 324.3575, 4163
18:01:04.187107, 324.36, 4175
18:01:04.187129, 324.3625, 4163
18:01:04.187149, 324.365, 4180
18:01:04.196976, 324.3675, 4177
18:01:04.197026, 324.37, 4178
18:01:04.197063, 324.3725, 4182
18:01:04.197088, 324.375, 4102
18:01:04.216013, 324.3775, 4162
18:01:04.216160, 324.38, 4160
18:01:04.216264, 324.3825, 4173
18:01:04.216347, 324.385, 4172
18:01:04.216371, 324.3875, 4172
18:01:04.216813, 324.39, 4156
18:01:04.216850, 324.3925, 4075
18:01:04.216872, 324.395, 4159
18:01:04.216894, 324.3975, 4168
18:01:04.231592, 324.4, 4149
18:01:04.231676, 324.4025, 4170
18:01:04.231716, 324.405, 4209
18:01:04.231752, 324.4075, 4241
18:01:04.252103, 324.41, 4316
18:01:04.252187, 324.4125, 4413
18:01:04.252212, 324.415, 4440
18:01:04.252231, 324.4175, 4473
18:01:04.252539, 324.42, 4479
18:01:04.252564, 324.4225, 4524
18:01:04.252580, 324.425, 4376
18:01:04.252594, 324.4275, 4107
18:01:04.257111, 324.43, 3975
18:01:04.257201, 324.4325, 3670
18:01:04.257269, 324.435, 3367
18:01:04.257327, 324.4375, 2971
18:01:04.284087, 324.44, 2512
18:01:04.284174, 324.4425, 1975
18:01:04.284289, 324.445, 1666
18:01:04.284335, 324.4475, 1684
18:01:04.284732, 324.45, 1821
18:01:04.284761, 324.4525, 2377
18:01:04.284788, 324.455, 3251
18:01:04.284811, 324.4575, 4126
18:01:04.292199, 324.46, 4650
18:01:04.292225, 324.4625, 4820
18:01:04.292241, 324.465, 4922
18:01:04.292256, 324.4675, 4804
18:01:04.318089, 324.47, 4671
18:01:04.318179, 324.4725, 4573
18:01:04.318216, 324.475, 4562
18:01:04.318249, 324.4775, 4544
18:01:04.318788, 324.48, 4418
18:01:04.318824, 324.4825, 4507
18:01:04.318877, 324.485, 4512
18:01:04.318936, 324.4875, 4511
18:01:04.318990, 324.49, 4524
18:01:04.319906, 324.4925, 4531
18:01:04.319974, 324.495, 4519
18:01:04.320026, 324.4975, 4427
18:01:04.320075, 324.5, 4502
18:01:04.327595, 324.5025, 4478
18:01:04.327670, 324.505, 4465
18:01:04.327723, 324.5075, 4444
18:01:04.327774, 324.51, 4465
18:01:04.348663, 324.5125, 4450
18:01:04.348741, 324.515, 4391
18:01:04.348763, 324.5175, 4462
18:01:04.348781, 324.52, 4429
18:01:04.353255, 324.5225, 4450
18:01:04.353310, 324.525, 4418
18:01:04.353337, 324.5275, 4430
18:01:04.353362, 324.53, 4400
18:01:04.362563, 324.5325, 4345
18:01:04.362646, 324.535, 4395
18:01:04.362712, 324.5375, 4390
18:01:04.362755, 324.54, 4361
18:01:04.382009, 324.5425, 4351
18:01:04.382090, 324.545, 4366
18:01:04.382112, 324.5475, 4371
18:01:04.382132, 324.55, 4297
18:01:04.382505, 324.5525, 4382
18:01:04.382537, 324.555, 4359
18:01:04.382552, 324.5575, 4311
18:01:04.382566, 324.56, 4294
18:01:04.388396, 324.5625, 4293
18:01:04.388450, 324.565, 4275
18:01:04.388478, 324.5675, 4192
18:01:04.388503, 324.57, 4280
18:01:04.388528, 324.5725, 4296
18:01:04.418772, 324.575, 4286
18:01:04.418890, 324.5775, 4269
18:01:04.418978, 324.58, 4263
18:01:04.419053, 324.5825, 4260
18:01:04.420392, 324.585, 4235
18:01:04.420471, 324.5875, 4249
18:01:04.420524, 324.59, 4251
18:01:04.420576, 324.5925, 4228
18:01:04.423233, 324.595, 4212
18:01:04.423256, 324.5975, 4212
18:01:04.423272, 324.6, 4227
18:01:04.423287, 324.6025, 4135
18:01:04.432722, 324.605, 4220
18:01:04.433675, 324.6075, 4217
18:01:04.433726, 324.61, 4210
18:01:04.433756, 324.6125, 4206
18:01:04.455862, 324.615, 4208
18:01:04.455947, 324.6175, 4207
18:01:04.455981, 324.62, 4152
18:01:04.456009, 324.6225, 4222
18:01:04.456728, 324.625, 4202
18:01:04.456763, 324.6275, 4222
18:01:04.456788, 324.63, 4207
18:01:04.456811, 324.6325, 4220
18:01:04.482556, 324.635, 4201
18:01:04.482667, 324.6375, 4131
18:01:04.482695, 324.64, 4189
18:01:04.482758, 324.6425, 4188
18:01:04.483260, 324.645, 4200
18:01:04.483306, 324.6475, 4213
18:01:04.483329, 324.65, 4211
18:01:04.483349, 324.6525, 4213
18:01:04.484441, 324.655, 4151
18:01:04.484480, 324.6575, 4216
18:01:04.484501, 324.66, 4206
18:01:04.484521, 324.6625, 4203
18:01:04.484542, 324.665, 4217
18:01:04.493689, 324.6675, 4208
18:01:04.493737, 324.67, 4225
18:01:04.493767, 324.6725, 4158
18:01:04.493797, 324.675, 4231
18:01:04.519631, 324.6775, 4217
18:01:04.519683, 324.68, 4204
18:01:04.519705, 324.6825, 4203
18:01:04.519724, 324.685, 4204
18:01:04.520110, 324.6875, 4201
18:01:04.520135, 324.69, 4120
18:01:04.520150, 324.6925, 4224
18:01:04.520165, 324.695, 4195
18:01:04.528521, 324.6975, 4207
18:01:04.528582, 324.7, 4213
18:01:04.528617, 324.7025, 4210
18:01:04.528671, 324.705, 4196
18:01:04.551768, 324.7075, 4160
18:01:04.551830, 324.71, 4227
18:01:04.551853, 324.7125, 4218
18:01:04.551873, 324.715, 4216
18:01:04.552266, 324.7175, 4197
18:01:04.552296, 324.72, 4205
18:01:04.552311, 324.7225, 4198
18:01:04.552326, 324.725, 4094
18:01:04.554581, 324.7275, 4181
18:01:04.554603, 324.73, 4155
18:01:04.554619, 324.7325, 4145
18:01:04.554633, 324.735, 4109
18:01:04.563533, 324.7375, 4156
18:01:04.563628, 324.74, 4131
18:01:04.563674, 324.7425, 4051
18:01:04.563700, 324.745, 4126
18:01:04.587085, 324.7475, 4124
18:01:04.587195, 324.75, 4141
18:01:04.587251, 324.7525, 4156
18:01:04.587300, 324.755, 4157
18:01:04.589801, 324.7575, 4141
18:01:04.589849, 324.76, 4068
18:01:04.589886, 324.7625, 4153
18:01:04.589921, 324.765, 4129
18:01:04.599450, 324.7675, 4125
18:01:04.600198, 324.77, 4141
18:01:04.619411, 324.7725, 4163
18:01:04.619496, 324.775, 4152
18:01:04.619527, 324.7775, 4091
18:01:04.620181, 324.78, 4162
18:01:04.620251, 324.7825, 4161
18:01:04.620287, 324.785, 4129
18:01:04.620318, 324.7875, 4123
18:01:04.620839, 324.79, 4159
18:01:04.620881, 324.7925, 4168
18:01:04.620911, 324.795, 4094
18:01:04.620940, 324.7975, 4183
18:01:04.624454, 324.8, 4186
18:01:04.624501, 324.8025, 4171
18:01:04.624522, 324.805, 4167
18:01:04.624542, 324.8075, 4183
18:01:04.633708, 324.81, 4215
18:01:04.633787, 324.8125, 4149
18:01:04.633809, 324.815, 4214
18:01:04.633825, 324.8175, 4196
18:01:04.655863, 324.82, 4195
18:01:04.655976, 324.8225, 4194
18:01:04.656014, 324.825, 4213
18:01:04.656046, 324.8275, 4212
18:01:04.659938, 324.83, 4170
18:01:04.660015, 324.8325, 4205
18:01:04.660058, 324.835, 4205
18:01:04.660094, 324.8375, 4192
18:01:04.684317, 324.84, 4159
18:01:04.684429, 324.8425, 4164
18:01:04.684464, 324.845, 4165
18:01:04.684491, 324.8475, 4102
18:01:04.685310, 324.85, 4194
18:01:04.685406, 324.8525, 4175
18:01:04.685448, 324.855, 4172
18:01:04.685486, 324.8575, 4164
18:01:04.686220, 324.86, 4174
18:01:04.686258, 324.8625, 4162
18:01:04.686280, 324.865, 4096
18:01:04.686300, 324.8675, 4187
18:01:04.718003, 324.87, 4182
18:01:04.718116, 324.8725, 4163
18:01:04.718148, 324.875, 4152
18:01:04.718193, 324.8775, 4165
18:01:04.718237, 324.88, 4174
18:01:04.718828, 324.8825, 4105
18:01:04.718895, 324.885, 4166
18:01:04.718919, 324.8875, 4169
18:01:04.718940, 324.89, 4154
18:01:04.720917, 324.8925, 4142
18:01:04.720956, 324.895, 4151
18:01:04.720978, 324.8975, 4159
18:01:04.720998, 324.9, 4067
18:01:04.729549, 324.9025, 4162
18:01:04.729601, 324.905, 4153
18:01:04.729631, 324.9075, 4145
18:01:04.729660, 324.91, 4181
18:01:04.755100, 324.9125, 4185
18:01:04.755224, 324.915, 4176
18:01:04.755273, 324.9175, 4109
18:01:04.755306, 324.92, 4181
18:01:04.755875, 324.9225, 4199
18:01:04.755912, 324.925, 4168
18:01:04.755937, 324.9275, 4175
18:01:04.755961, 324.93, 4201
18:01:04.764811, 324.9325, 4173
18:01:04.764897, 324.935, 4086
18:01:04.764974, 324.9375, 4167
18:01:04.765037, 324.94, 4178
18:01:04.788093, 324.9425, 4171
18:01:04.788177, 324.945, 4169
18:01:04.788207, 324.9475, 4168
18:01:04.788271, 324.95, 4159
18:01:04.788301, 324.9525, 4081
18:01:04.788723, 324.955, 4148
18:01:04.788751, 324.9575, 4145
18:01:04.788771, 324.96, 4159
18:01:04.788791, 324.9625, 4152
18:01:04.791072, 324.965, 4170
18:01:04.791150, 324.9675, 4163
18:01:04.791200, 324.97, 4087
18:01:04.791245, 324.9725, 4164
18:01:04.800383, 324.975, 4167
18:01:04.800433, 324.9775, 4149
18:01:04.800462, 324.98, 4155
18:01:04.800518, 324.9825, 4175
18:01:04.822308, 324.985, 4171
18:01:04.822414, 324.9875, 4095
18:01:04.822452, 324.99, 4175
18:01:04.822483, 324.9925, 4184
18:01:04.826255, 324.995, 4166
18:01:04.826325, 324.9975, 4191
18:01:04.826369, 325.0, 4181
18:01:04.826410, 325.0025, 4171
18:01:04.851202, 325.005, 4136
18:01:04.851316, 325.0075, 4166
18:01:04.851369, 325.01, 4161
18:01:04.851414, 325.0125, 4164
18:01:04.852196, 325.015, 4130
18:01:04.852263, 325.0175, 4156
18:01:04.852302, 325.02, 4142
18:01:04.852344, 325.0225, 4080
18:01:04.853059, 325.025, 4164
18:01:04.853112, 325.0275, 4152
18:01:04.853149, 325.03, 4179
18:01:04.853182, 325.0325, 4172
18:01:04.853218, 325.035, 4159
18:01:04.861426, 325.0375, 4183
18:01:04.861517, 325.04, 4097
18:01:04.861582, 325.0425, 4168
18:01:04.861646, 325.045, 4171
18:01:04.885083, 325.0475, 4156
18:01:04.885232, 325.05, 4174
18:01:04.885277, 325.0525, 4166
18:01:04.885316, 325.055, 4167
18:01:04.887212, 325.0575, 4117
18:01:04.887269, 325.06, 4176
18:01:04.887312, 325.0625, 4147
18:01:04.887338, 325.065, 4163
18:01:04.896354, 325.0675, 4156
18:01:04.896409, 325.07, 4183
18:01:04.896446, 325.0725, 4160
18:01:04.896479, 325.075, 4078
18:01:04.919354, 325.0775, 4163
18:01:04.919442, 325.08, 4169
18:01:04.919491, 325.0825, 4174
18:01:04.919537, 325.085, 4159
18:01:04.920253, 325.0875, 4192
18:01:04.920303, 325.09, 4164
18:01:04.920339, 325.0925, 4109
18:01:04.920374, 325.095, 4183
18:01:04.922279, 325.0975, 4178
18:01:04.922365, 325.1, 4183
18:01:04.922407, 325.1025, 4166
18:01:04.922444, 325.105, 4195
18:01:04.952388, 325.1075, 4184
18:01:04.952481, 325.11, 4097
18:01:04.952515, 325.1125, 4188
18:01:04.952548, 325.115, 4167
18:01:04.953104, 325.1175, 4162
18:01:04.953159, 325.12, 4154
18:01:04.953182, 325.1225, 4152
18:01:04.953202, 325.125, 4170
18:01:04.953222, 325.1275, 4071
18:01:04.957278, 325.13, 4167
18:01:04.957331, 325.1325, 4168
18:01:04.957360, 325.135, 4178
18:01:04.957387, 325.1375, 4157
18:01:04.965808, 325.14, 4169
18:01:04.965852, 325.1425, 4154
18:01:04.965872, 325.145, 4105
18:01:04.965891, 325.1475, 4166
18:01:04.985726, 325.15, 4162
18:01:04.985829, 325.1525, 4173
18:01:04.985861, 325.155, 4184
18:01:04.985887, 325.1575, 4189
18:01:04.992052, 325.16, 4157
18:01:04.992095, 325.1625, 4069
18:01:04.992118, 325.165, 4170
18:01:04.992139, 325.1675, 4186
18:01:05.001683, 325.17, 4178
18:01:05.001755, 325.1725, 4176
18:01:05.001788, 325.175, 4153
18:01:05.001807, 325.1775, 4159
18:01:05.019130, 325.18, 4090
18:01:05.019249, 325.1825, 4154
18:01:05.019276, 325.185, 4169
18:01:05.019296, 325.1875, 4160
18:01:05.019641, 325.19, 4163
18:01:05.019674, 325.1925, 4166
18:01:05.019690, 325.195, 4168
18:01:05.019706, 325.1975, 4096
18:01:05.027902, 325.2, 4202
18:01:05.027993, 325.2025, 4189
18:01:05.028044, 325.205, 4178
18:01:05.028090, 325.2075, 4156
18:01:05.055533, 325.21, 4181
18:01:05.055592, 325.2125, 4178
18:01:05.055615, 325.215, 4072
18:01:05.055639, 325.2175, 4146
18:01:05.055660, 325.22, 4175
18:01:05.056045, 325.2225, 4174
18:01:05.056070, 325.225, 4174
18:01:05.056086, 325.2275, 4188
18:01:05.056102, 325.23, 4158
18:01:05.062491, 325.2325, 4111
18:01:05.062548, 325.235, 4156
18:01:05.062577, 325.2375, 4161
18:01:05.062602, 325.24, 4171
18:01:05.088868, 325.2425, 4158
18:01:05.088969, 325.245, 4165
18:01:05.089021, 325.2475, 4151
18:01:05.089092, 325.25, 4097
18:01:05.089774, 325.2525, 4169
18:01:05.089822, 325.255, 4165
18:01:05.089862, 325.2575, 4175
18:01:05.089902, 325.26, 4173
18:01:05.090538, 325.2625, 4163
18:01:05.090582, 325.265, 4184
18:01:05.090622, 325.2675, 4092
18:01:05.090660, 325.27, 4165
18:01:05.097213, 325.2725, 4170
18:01:05.097244, 325.275, 4159
18:01:05.097260, 325.2775, 4167
18:01:05.097275, 325.28, 4167
18:01:05.123753, 325.2825, 4139
18:01:05.123816, 325.285, 4062
18:01:05.123877, 325.2875, 4152
18:01:05.123919, 325.29, 4176
18:01:05.123958, 325.2925, 4155
18:01:05.124523, 325.295, 4175
18:01:05.124560, 325.2975, 4164
18:01:05.124592, 325.3, 4128
18:01:05.124622, 325.3025, 4031
18:01:05.132154, 325.305, 4149
18:01:05.132198, 325.3075, 4139
18:01:05.132231, 325.31, 4169
18:01:05.132262, 325.3125, 4168
18:01:05.153380, 325.315, 4206
18:01:05.153624, 325.3175, 4211
18:01:05.153729, 325.32, 4131
18:01:05.153797, 325.3225, 4214
18:01:05.154480, 325.325, 4198
18:01:05.154544, 325.3275, 4200
18:01:05.154584, 325.33, 4195
18:01:05.154624, 325.3325, 4198
18:01:05.168593, 325.335, 4203
18:01:05.168657, 325.3375, 4099
18:01:05.168693, 325.34, 4188
18:01:05.168801, 325.3425, 4179
18:01:05.189761, 325.345, 4180
18:01:05.189855, 325.3475, 4194
18:01:05.189895, 325.35, 4181
18:01:05.189931, 325.3525, 4187
18:01:05.190439, 325.355, 4127
18:01:05.190474, 325.3575, 4197
18:01:05.190503, 325.36, 4184
18:01:05.190532, 325.3625, 4188
18:01:05.190560, 325.365, 4172
18:01:05.220850, 325.3675, 4210
18:01:05.220966, 325.37, 4199
18:01:05.221010, 325.3725, 4066
18:01:05.221047, 325.375, 4214
18:01:05.221586, 325.3775, 4210
18:01:05.221650, 325.38, 4206
18:01:05.221689, 325.3825, 4196
18:01:05.221715, 325.385, 4227
18:01:05.222165, 325.3875, 4313
18:01:05.222209, 325.39, 4260
18:01:05.222252, 325.3925, 4456
18:01:05.222279, 325.395, 4481
18:01:05.228230, 325.3975, 4505
18:01:05.228272, 325.4, 4490
18:01:05.228300, 325.4025, 4364
18:01:05.228328, 325.405, 4175
18:01:05.255675, 325.4075, 3917
18:01:05.255742, 325.41, 3682
18:01:05.255784, 325.4125, 3359
18:01:05.255822, 325.415, 3000
18:01:05.256418, 325.4175, 2598
18:01:05.256455, 325.42, 2100
18:01:05.256488, 325.4225, 1824
18:01:05.256519, 325.425, 1623
18:01:05.265542, 325.4275, 1831
18:01:05.265592, 325.43, 2254
18:01:05.265626, 325.4325, 3057
18:01:05.265658, 325.435, 3958
18:01:05.266762, 325.4375, 4617
18:01:05.266801, 325.44, 4909
18:01:05.266847, 325.4425, 4972
18:01:05.266878, 325.445, 4928
18:01:05.266907, 325.4475, 4799
18:01:05.287290, 325.45, 4671
18:01:05.287386, 325.4525, 4572
18:01:05.287478, 325.455, 4576
18:01:05.287515, 325.4575, 4552
18:01:05.289743, 325.46, 4479
18:01:05.289786, 325.4625, 4509
18:01:05.289817, 325.465, 4504
18:01:05.289847, 325.4675, 4512
18:01:05.298650, 325.47, 4500
18:01:05.298694, 325.4725, 4514
18:01:05.298726, 325.475, 4498
18:01:05.298755, 325.4775, 4416
18:01:05.322816, 325.48, 4503
18:01:05.322939, 325.4825, 4456
18:01:05.322980, 325.485, 4449
18:01:05.323014, 325.4875, 4422
18:01:05.323356, 325.49, 4443
18:01:05.323380, 325.4925, 4433
18:01:05.323397, 325.495, 4333
18:01:05.323413, 325.4975, 4415
18:01:05.324440, 325.5, 4415
18:01:05.324461, 325.5025, 4387
18:01:05.324478, 325.505, 4386
18:01:05.324493, 325.5075, 4376
18:01:05.356340, 325.51, 4349
18:01:05.356419, 325.5125, 4281
18:01:05.356470, 325.515, 4353
18:01:05.356498, 325.5175, 4327
18:01:05.357034, 325.52, 4327
18:01:05.357071, 325.5225, 4326
18:01:05.357095, 325.525, 4336
18:01:05.357118, 325.5275, 4333
18:01:05.357141, 325.53, 4272
18:01:05.359578, 325.5325, 4347
18:01:05.359601, 325.535, 4302
18:01:05.359616, 325.5375, 4314
18:01:05.359629, 325.54, 4244
18:01:05.369349, 325.5425, 4281
18:01:05.369427, 325.545, 4262
18:01:05.369457, 325.5475, 4186
18:01:05.369492, 325.55, 4262
18:01:05.390079, 325.5525, 4262
18:01:05.390180, 325.555, 4250
18:01:05.390216, 325.5575, 4249
18:01:05.390248, 325.56, 4270
18:01:05.394552, 325.5625, 4235
18:01:05.394606, 325.565, 4159
18:01:05.394645, 325.5675, 4249
18:01:05.394683, 325.57, 4238
18:01:05.403957, 325.5725, 4215
18:01:05.404043, 325.575, 4212
18:01:05.404075, 325.5775, 4206
18:01:05.404104, 325.58, 4214
18:01:05.423741, 325.5825, 4134
18:01:05.423844, 325.585, 4239
18:01:05.423896, 325.5875, 4222
18:01:05.423940, 325.59, 4226
18:01:05.424487, 325.5925, 4216
18:01:05.424521, 325.595, 4222
18:01:05.424543, 325.5975, 4191
18:01:05.424565, 325.6, 4115
18:01:05.429789, 325.6025, 4209
18:01:05.429844, 325.605, 4201
18:01:05.429875, 325.6075, 4190
18:01:05.429902, 325.61, 4183
18:01:05.455381, 325.6125, 4218
18:01:05.455473, 325.615, 4192
18:01:05.455506, 325.6175, 4116
18:01:05.455535, 325.62, 4187
18:01:05.467176, 325.6225, 4187
18:01:05.467220, 325.625, 4206
18:01:05.467236, 325.6275, 4196
18:01:05.467250, 325.63, 4215
18:01:05.467263, 325.6325, 4200
18:01:05.467926, 325.635, 4161
18:01:05.467943, 325.6375, 4183
18:01:05.467957, 325.64, 4174
18:01:05.467970, 325.6425, 4189
18:01:05.489450, 325.645, 4176
18:01:05.489578, 325.6475, 4186
18:01:05.489599, 325.65, 4180
18:01:05.489616, 325.6525, 4092
18:01:05.489938, 325.655, 4229
18:01:05.489966, 325.6575, 4207
18:01:05.489982, 325.66, 4188
18:01:05.489996, 325.6625, 4202
18:01:05.522701, 325.665, 4179
18:01:05.522927, 325.6675, 4160
18:01:05.522971, 325.67, 4057
18:01:05.522993, 325.6725, 4189
18:01:05.523305, 325.675, 4183
18:01:05.523329, 325.6775, 4169
18:01:05.523344, 325.68, 4159
18:01:05.523359, 325.6825, 4184
18:01:05.557169, 325.685, 4181
18:01:05.557263, 325.6875, 4150
18:01:05.557315, 325.69, 4177
18:01:05.557416, 325.6925, 4182
18:01:05.557914, 325.695, 4167
18:01:05.557949, 325.6975, 4125
18:01:05.557974, 325.7, 4161
18:01:05.557997, 325.7025, 4156
18:01:05.558020, 325.705, 4157
18:01:05.558422, 325.7075, 4169
18:01:05.558452, 325.71, 4145
18:01:05.558475, 325.7125, 4148
18:01:05.558497, 325.715, 4101
18:01:05.558993, 325.7175, 4160
18:01:05.559057, 325.72, 4147
18:01:05.559104, 325.7225, 4045
18:01:05.559149, 325.725, 4181
18:01:05.559909, 325.7275, 4188
18:01:05.559967, 325.73, 4166
18:01:05.560013, 325.7325, 4165
18:01:05.560057, 325.735, 4183
18:01:05.570122, 325.7375, 4197
18:01:05.570195, 325.74, 4106
18:01:05.570218, 325.7425, 4174
18:01:05.570236, 325.745, 4180
18:01:05.592473, 325.7475, 4205
18:01:05.592591, 325.75, 4209
18:01:05.592665, 325.7525, 4210
18:01:05.592734, 325.755, 4170
18:01:05.593565, 325.7575, 4112
18:01:05.593630, 325.76, 4183
18:01:05.593691, 325.7625, 4194
18:01:05.593761, 325.765, 4212
18:01:05.596325, 325.7675, 4225
18:01:05.596391, 325.77, 4230
18:01:05.596436, 325.7725, 4220
18:01:05.596476, 325.775, 4136
18:01:05.605060, 325.7775, 4233
18:01:05.605388, 325.78, 4244
18:01:05.605419, 325.7825, 4214
18:01:05.605439, 325.785, 4213
18:01:05.622225, 325.7875, 4236
18:01:05.622313, 325.79, 4247
18:01:05.622340, 325.7925, 4170
18:01:05.622362, 325.795, 4257
18:01:05.622776, 325.7975, 4253
18:01:05.622819, 325.8, 4227
18:01:05.622837, 325.8025, 4209
18:01:05.622895, 325.805, 4207
18:01:05.655327, 325.8075, 4217
18:01:05.655399, 325.81, 4124
18:01:05.655420, 325.8125, 4213
18:01:05.655439, 325.815, 4190
18:01:05.655905, 325.8175, 4202
18:01:05.655954, 325.82, 4180
18:01:05.655981, 325.8225, 4187
18:01:05.656011, 325.825, 4184
18:01:05.657066, 325.8275, 4133
18:01:05.657103, 325.83, 4209
18:01:05.657118, 325.8325, 4185
18:01:05.657133, 325.835, 4175
18:01:05.657148, 325.8375, 4162
18:01:05.666099, 325.84, 4175
18:01:05.666156, 325.8425, 4174
18:01:05.666189, 325.845, 4109
18:01:05.666221, 325.8475, 4163
18:01:05.689167, 325.85, 4164
18:01:05.689222, 325.8525, 4185
18:01:05.689247, 325.855, 4178
18:01:05.689267, 325.8575, 4198
18:01:05.703536, 325.86, 4190
18:01:05.703596, 325.8625, 4093
18:01:05.703618, 325.865, 4172
18:01:05.703637, 325.8675, 4169
18:01:05.704756, 325.87, 4159
18:01:05.704790, 325.8725, 4171
18:01:05.704822, 325.875, 4192
18:01:05.704843, 325.8775, 4196
18:01:05.731504, 325.88, 4108
18:01:05.731575, 325.8825, 4190
18:01:05.731611, 325.885, 4172
18:01:05.731642, 325.8875, 4169
18:01:05.734630, 325.89, 4155
18:01:05.734686, 325.8925, 4211
18:01:05.734716, 325.895, 4195
18:01:05.734742, 325.8975, 4172
18:01:05.734768, 325.9, 4190
18:01:05.737428, 325.9025, 4180
18:01:05.737474, 325.905, 4157
18:01:05.737495, 325.9075, 4122
18:01:05.737513, 325.91, 4195
18:01:05.738506, 325.9125, 4183
18:01:05.738543, 325.915, 4063
18:01:05.738562, 325.9175, 4195
18:01:05.738580, 325.92, 4198
18:01:05.761094, 325.9225, 4188
18:01:05.761243, 325.925, 4189
18:01:05.761289, 325.9275, 4186
18:01:05.761325, 325.93, 4183
18:01:05.789418, 325.9325, 4138
18:01:05.789509, 325.935, 4181
18:01:05.789548, 325.9375, 4168
18:01:05.789582, 325.94, 4175
18:01:05.790118, 325.9425, 4184
18:01:05.790174, 325.945, 4195
18:01:05.790215, 325.9475, 4176
18:01:05.790246, 325.95, 4120
18:01:05.790822, 325.9525, 4206
18:01:05.790925, 325.955, 4214
18:01:05.790973, 325.9575, 4206
18:01:05.791020, 325.96, 4166
18:01:05.791745, 325.9625, 4207
18:01:05.791803, 325.965, 4195
18:01:05.791847, 325.9675, 4070
18:01:05.791887, 325.97, 4205
18:01:05.798189, 325.9725, 4222
18:01:05.798327, 325.975, 4189
18:01:05.798421, 325.9775, 4173
18:01:05.798508, 325.98, 4176
18:01:05.824135, 325.9825, 4188
18:01:05.824259, 325.985, 4123
18:01:05.824288, 325.9875, 4162
18:01:05.824311, 325.99, 4189
18:01:05.824724, 325.9925, 4176
18:01:05.824755, 325.995, 4167
18:01:05.824771, 325.9975, 4164
18:01:05.824786, 326.0, 4148
18:01:05.832010, 326.0025, 4084
18:01:05.832056, 326.005, 4157
18:01:05.832077, 326.0075, 4175
18:01:05.832096, 326.01, 4164
18:01:05.832114, 326.0125, 4149
18:01:05.841627, 326.015, 4161
18:01:05.841691, 326.0175, 4155
18:01:05.841722, 326.02, 4055
18:01:05.841763, 326.0225, 4148
18:01:05.868647, 326.025, 4161
18:01:05.868705, 326.0275, 4162
18:01:05.868727, 326.03, 4164
18:01:05.868780, 326.0325, 4171
18:01:05.869069, 326.035, 4177
18:01:05.869094, 326.0375, 4094
18:01:05.869109, 326.04, 4188
18:01:05.869123, 326.0425, 4143
18:01:05.896903, 326.045, 4160
18:01:05.896968, 326.0475, 4125
18:01:05.896995, 326.05, 4160
18:01:05.897018, 326.0525, 4171
18:01:05.897370, 326.055, 4082
18:01:05.897395, 326.0575, 4170
18:01:05.897411, 326.06, 4156
18:01:05.897426, 326.0625, 4155
18:01:05.897730, 326.065, 4168
18:01:05.897752, 326.0675, 4213
18:01:05.897768, 326.07, 4182
18:01:05.897784, 326.0725, 4129
18:01:05.897798, 326.075, 4179
18:01:05.902196, 326.0775, 4181
18:01:05.902228, 326.08, 4167
18:01:05.902244, 326.0825, 4177
18:01:05.902293, 326.085, 4160
18:01:05.928070, 326.0875, 4163
18:01:05.928138, 326.09, 4106
18:01:05.928207, 326.0925, 4184
18:01:05.928233, 326.095, 4178
18:01:05.928547, 326.0975, 4173
18:01:05.928572, 326.1, 4160
18:01:05.928587, 326.1025, 4171
18:01:05.928601, 326.105, 4174
18:01:05.936943, 326.1075, 4151
18:01:05.936978, 326.11, 4183
18:01:05.936993, 326.1125, 4174
18:01:05.937007, 326.115, 4157
18:01:05.959137, 326.1175, 4165
18:01:05.959284, 326.12, 4175
18:01:05.959329, 326.1225, 4175
18:01:05.959392, 326.125, 4096
18:01:05.959949, 326.1275, 4182
18:01:05.959994, 326.13, 4185
18:01:05.960023, 326.1325, 4181
18:01:05.960050, 326.135, 4160
18:01:05.963581, 326.1375, 4169
18:01:05.963648, 326.14, 4166
18:01:05.963704, 326.1425, 4049
18:01:05.963755, 326.145, 4145
18:01:05.972811, 326.1475, 4140
18:01:05.972843, 326.15, 4124
18:01:05.972862, 326.1525, 4134
18:01:05.972880, 326.155, 4145
18:01:05.991847, 326.1575, 4159
18:01:05.991988, 326.16, 4060
18:01:05.992130, 326.1625, 4153
18:01:05.992157, 326.165, 4125
18:01:05.998332, 326.1675, 4110
18:01:05.998383, 326.17, 4118
18:01:05.998415, 326.1725, 4126
18:01:05.998446, 326.175, 4127
18:01:06.007985, 326.1775, 4089
18:01:06.008078, 326.18, 4165
18:01:06.008103, 326.1825, 4197
18:01:06.008152, 326.185, 4183
18:01:06.042778, 326.1875, 4174
18:01:06.042853, 326.19, 4202
18:01:06.042886, 326.1925, 4198
18:01:06.042911, 326.195, 4114
18:01:06.042932, 326.1975, 4188
18:01:06.043703, 326.2, 4195
18:01:06.043733, 326.2025, 4195
18:01:06.043752, 326.205, 4197
18:01:06.043777, 326.2075, 4192
18:01:06.044954, 326.21, 4182
18:01:06.044979, 326.2125, 4076
18:01:06.044998, 326.215, 4194
18:01:06.045017, 326.2175, 4201
18:01:06.070142, 326.22, 4182
18:01:06.070215, 326.2225, 4174
18:01:06.070245, 326.225, 4187
18:01:06.070272, 326.2275, 4189
18:01:06.071643, 326.23, 4167
18:01:06.071704, 326.2325, 4191
18:01:06.071731, 326.235, 4197
18:01:06.071750, 326.2375, 4200
18:01:06.072750, 326.24, 4195
18:01:06.072786, 326.2425, 4215
18:01:06.072806, 326.245, 4180
18:01:06.072826, 326.2475, 4101
18:01:06.100001, 326.25, 4174
18:01:06.100065, 326.2525, 4195
18:01:06.100138, 326.255, 4263
18:01:06.100186, 326.2575, 4377
18:01:06.102401, 326.26, 4417
18:01:06.102437, 326.2625, 4434
18:01:06.102853, 326.265, 4406
18:01:06.103116, 326.2675, 4511
18:01:06.123039, 326.27, 4439
18:01:06.123098, 326.2725, 4269
18:01:06.123118, 326.275, 4029
18:01:06.123138, 326.2775, 3848
18:01:06.123167, 326.28, 3513
18:01:06.123627, 326.2825, 3122
18:01:06.123660, 326.285, 2823
18:01:06.123676, 326.2875, 2321
18:01:06.123691, 326.29, 1899
18:01:06.123951, 326.2925, 1663
18:01:06.123974, 326.295, 1710
18:01:06.123994, 326.2975, 1968
18:01:06.124010, 326.3, 2566
18:01:06.152131, 326.3025, 3577
18:01:06.152191, 326.305, 4440
18:01:06.152216, 326.3075, 4851
18:01:06.152237, 326.31, 4996
18:01:06.153194, 326.3125, 4980
18:01:06.153229, 326.315, 4845
18:01:06.153251, 326.3175, 4626
18:01:06.153271, 326.32, 4605
18:01:06.154614, 326.3225, 4567
18:01:06.154641, 326.325, 4526
18:01:06.154662, 326.3275, 4484
18:01:06.154690, 326.33, 4481
18:01:06.180646, 326.3325, 4476
18:01:06.180708, 326.335, 4435
18:01:06.180731, 326.3375, 4522
18:01:06.180831, 326.34, 4496
18:01:06.181744, 326.3425, 4511
18:01:06.181784, 326.345, 4469
18:01:06.181812, 326.3475, 4480
18:01:06.181839, 326.35, 4467
18:01:06.181866, 326.3525, 4374
18:01:06.183317, 326.355, 4450
18:01:06.183350, 326.3575, 4430
18:01:06.183378, 326.36, 4429
18:01:06.183406, 326.3625, 4427
18:01:06.208469, 326.365, 4427
18:01:06.208524, 326.3675, 4403
18:01:06.208558, 326.37, 4330
18:01:06.208576, 326.3725, 4383
18:01:06.209632, 326.375, 4374
18:01:06.209668, 326.3775, 4362
18:01:06.209688, 326.38, 4346
18:01:06.209707, 326.3825, 4361
18:01:06.211169, 326.385, 4336
18:01:06.211198, 326.3875, 4260
18:01:06.211247, 326.39, 4347
18:01:06.211265, 326.3925, 4336
18:01:06.235054, 326.395, 4318
18:01:06.235106, 326.3975, 4320
18:01:06.235127, 326.4, 4321
18:01:06.235145, 326.4025, 4324
18:01:06.236025, 326.405, 4280
18:01:06.236084, 326.4075, 4315
18:01:06.236142, 326.41, 4274
18:01:06.236219, 326.4125, 4278
18:01:06.261179, 326.415, 4260
18:01:06.261245, 326.4175, 4293
18:01:06.261265, 326.42, 4248
18:01:06.261293, 326.4225, 4186
18:01:06.262327, 326.425, 4275
18:01:06.262359, 326.4275, 4270
18:01:06.262437, 326.43, 4264
18:01:06.262455, 326.4325, 4225
18:01:06.263547, 326.435, 4225
18:01:06.263568, 326.4375, 4215
18:01:06.263582, 326.44, 4113
18:01:06.263596, 326.4425, 4211
18:01:06.288039, 326.445, 4203
18:01:06.288114, 326.4475, 4213
18:01:06.288181, 326.45, 4201
18:01:06.288228, 326.4525, 4211
18:01:06.289314, 326.455, 4223
18:01:06.289353, 326.4575, 4096
18:01:06.289373, 326.46, 4206
18:01:06.289433, 326.4625, 4201
18:01:06.289473, 326.465, 4193
18:01:06.316882, 326.4675, 4197
18:01:06.316949, 326.47, 4220
18:01:06.316981, 326.4725, 4210
18:01:06.317008, 326.475, 4124
18:01:06.318830, 326.4775, 4206
18:01:06.318895, 326.48, 4210
18:01:06.319018, 326.4825, 4202
18:01:06.319081, 326.485, 4205
18:01:06.320103, 326.4875, 4198
18:01:06.320136, 326.49, 4230
18:01:06.320163, 326.4925, 4138
18:01:06.320904, 326.495, 4220
18:01:06.343176, 326.4975, 4225
18:01:06.343256, 326.5, 4211
18:01:06.343282, 326.5025, 4198
18:01:06.343304, 326.505, 4214
18:01:06.370203, 326.5075, 4215
18:01:06.370259, 326.51, 4142
18:01:06.370280, 326.5125, 4228
18:01:06.370299, 326.515, 4212
18:01:06.371081, 326.5175, 4211
18:01:06.371115, 326.52, 4203
18:01:06.371167, 326.5225, 4198
18:01:06.371187, 326.525, 4209
18:01:06.371205, 326.5275, 4168
18:01:06.372447, 326.53, 4197
18:01:06.372503, 326.5325, 4192
18:01:06.372520, 326.535, 4199
18:01:06.372534, 326.5375, 4210
18:01:06.393587, 326.54, 4206
18:01:06.393672, 326.5425, 4187
18:01:06.393705, 326.545, 4081
18:01:06.393745, 326.5475, 4204
18:01:06.394950, 326.55, 4237
18:01:06.394986, 326.5525, 4229
18:01:06.395013, 326.555, 4181
18:01:06.395041, 326.5575, 4215
18:01:06.396235, 326.56, 4206
18:01:06.396285, 326.5625, 4118
18:01:06.396306, 326.565, 4184
18:01:06.396328, 326.5675, 4195
18:01:06.420495, 326.57, 4183
18:01:06.420570, 326.5725, 4179
18:01:06.420593, 326.575, 4187
18:01:06.420707, 326.5775, 4160
18:01:06.422238, 326.58, 4065
18:01:06.422280, 326.5825, 4148
18:01:06.422300, 326.585, 4150
18:01:06.422342, 326.5875, 4154
18:01:06.423470, 326.59, 4149
18:01:06.423516, 326.5925, 4171
18:01:06.423539, 326.595, 4175
18:01:06.423556, 326.5975, 4096
18:01:06.441462, 326.6, 4179
18:01:06.441606, 326.6025, 4165
18:01:06.441704, 326.605, 4159
18:01:06.441838, 326.6075, 4172
18:01:06.443078, 326.61, 4179
18:01:06.443165, 326.6125, 4163
18:01:06.443210, 326.615, 4074
18:01:06.443251, 326.6175, 4170
18:01:06.443291, 326.62, 4195
18:01:06.479060, 326.6225, 4195
18:01:06.479152, 326.625, 4184
18:01:06.479188, 326.6275, 4231
18:01:06.479218, 326.63, 4242
18:01:06.480212, 326.6325, 4189
18:01:06.480288, 326.635, 4213
18:01:06.480344, 326.6375, 4200
18:01:06.480394, 326.64, 4216
18:01:06.481396, 326.6425, 4187
18:01:06.481469, 326.645, 4219
18:01:06.481522, 326.6475, 4203
18:01:06.481573, 326.65, 4107
18:01:06.482473, 326.6525, 4237
18:01:06.482540, 326.655, 4197
18:01:06.482591, 326.6575, 4218
18:01:06.482641, 326.66, 4186
18:01:06.512758, 326.6625, 4223
18:01:06.512841, 326.665, 4233
18:01:06.512865, 326.6675, 4165
18:01:06.512885, 326.67, 4226
18:01:06.513268, 326.6725, 4227
18:01:06.513289, 326.675, 4210
18:01:06.513305, 326.6775, 4205
18:01:06.513319, 326.68, 4193
18:01:06.514148, 326.6825, 4186
18:01:06.514167, 326.685, 4078
18:01:06.514181, 326.6875, 4215
18:01:06.514194, 326.69, 4211
18:01:06.546389, 326.6925, 4225
18:01:06.546475, 326.695, 4107
18:01:06.546500, 326.6975, 4226
18:01:06.546519, 326.7, 4205
18:01:06.546818, 326.7025, 4150
18:01:06.546838, 326.705, 4183
18:01:06.546873, 326.7075, 4187
18:01:06.546888, 326.71, 4178
18:01:06.546903, 326.7125, 4190
18:01:06.547156, 326.715, 4182
18:01:06.547174, 326.7175, 4190
18:01:06.547189, 326.72, 4053
18:01:06.547203, 326.7225, 4199
18:01:06.549288, 326.725, 4196
18:01:06.549308, 326.7275, 4183
18:01:06.549322, 326.73, 4180
18:01:06.549336, 326.7325, 4182
18:01:06.558806, 326.735, 4173
18:01:06.558884, 326.7375, 4089
18:01:06.558967, 326.74, 4181
18:01:06.558990, 326.7425, 4186
18:01:06.580254, 326.745, 4185
18:01:06.580312, 326.7475, 4182
18:01:06.580343, 326.75, 4191
18:01:06.580378, 326.7525, 4164
18:01:06.585070, 326.755, 4123
18:01:06.585157, 326.7575, 4175
18:01:06.585208, 326.76, 4178
18:01:06.585254, 326.7625, 4156
18:01:06.613611, 326.765, 4158
18:01:06.613672, 326.7675, 4205
18:01:06.613696, 326.77, 4184
18:01:06.613717, 326.7725, 4113
18:01:06.614085, 326.775, 4200
18:01:06.614108, 326.7775, 4176
18:01:06.614124, 326.78, 4188
18:01:06.614139, 326.7825, 4197
18:01:06.614407, 326.785, 4178
18:01:06.614427, 326.7875, 4191
18:01:06.614443, 326.79, 4059
18:01:06.614458, 326.7925, 4201
18:01:06.619656, 326.795, 4166
18:01:06.619709, 326.7975, 4177
18:01:06.619740, 326.8, 4154
18:01:06.619768, 326.8025, 4172
18:01:06.644580, 326.805, 4178
18:01:06.644673, 326.8075, 4086
18:01:06.644709, 326.81, 4168
18:01:06.644739, 326.8125, 4180
18:01:06.645949, 326.815, 4159
18:01:06.645995, 326.8175, 4165
18:01:06.646018, 326.82, 4163
18:01:06.646039, 326.8225, 4130
18:01:06.646061, 326.825, 4080
18:01:06.654724, 326.8275, 4155
18:01:06.654795, 326.83, 4172
18:01:06.654828, 326.8325, 4174
18:01:06.654895, 326.835, 4162
18:01:06.677652, 326.8375, 4179
18:01:06.677838, 326.84, 4163
18:01:06.677877, 326.8425, 4080
18:01:06.677897, 326.845, 4168
18:01:06.678186, 326.8475, 4165
18:01:06.678219, 326.85, 4165
18:01:06.678235, 326.8525, 4169
18:01:06.678248, 326.855, 4167
18:01:06.689773, 326.8575, 4150
18:01:06.689846, 326.86, 4040
18:01:06.689889, 326.8625, 4157
18:01:06.689926, 326.865, 4167
18:01:06.720370, 326.8675, 4150
18:01:06.720444, 326.87, 4155
18:01:06.720481, 326.8725, 4154
18:01:06.720513, 326.875, 4159
18:01:06.723453, 326.8775, 4087
18:01:06.723499, 326.88, 4179
18:01:06.723532, 326.8825, 4173
18:01:06.723564, 326.885, 4202
18:01:06.726422, 326.8875, 4151
18:01:06.726483, 326.89, 4183
18:01:06.726546, 326.8925, 4196
18:01:06.726567, 326.895, 4152
18:01:06.726598, 326.8975, 4180
18:01:06.727462, 326.9, 4170
18:01:06.727496, 326.9025, 4155
18:01:06.727520, 326.905, 4056
18:01:06.727544, 326.9075, 4180
18:01:06.747619, 326.91, 4186
18:01:06.747718, 326.9125, 4090
18:01:06.747751, 326.915, 4171
18:01:06.747774, 326.9175, 4160
18:01:06.751079, 326.92, 4150
18:01:06.751143, 326.9225, 4161
18:01:06.751182, 326.925, 4158
18:01:06.751216, 326.9275, 4148
18:01:06.760960, 326.93, 4052
18:01:06.761036, 326.9325, 4160
18:01:06.761067, 326.935, 4153
18:01:06.761096, 326.9375, 4157
18:01:06.779505, 326.94, 4146
18:01:06.779577, 326.9425, 4183
18:01:06.779598, 326.945, 4157
18:01:06.779617, 326.9475, 4074
18:01:06.787918, 326.95, 4135
18:01:06.787947, 326.9525, 4132
18:01:06.787963, 326.955, 4140
18:01:06.787977, 326.9575, 4145
18:01:06.789014, 326.96, 4156
18:01:06.789032, 326.9625, 4155
18:01:06.789045, 326.965, 4085
18:01:06.789058, 326.9675, 4168
18:01:06.789071, 326.97, 4159
18:01:06.815284, 326.9725, 4138
18:01:06.815364, 326.975, 4120
18:01:06.815396, 326.9775, 4170
18:01:06.815424, 326.98, 4145
18:01:06.815995, 326.9825, 4108
18:01:06.816029, 326.985, 4126
18:01:06.816055, 326.9875, 4147
18:01:06.816079, 326.99, 4120
18:01:06.821317, 326.9925, 4136
18:01:06.821400, 326.995, 4155
18:01:06.821453, 326.9975, 4133
18:01:06.821504, 327.0, 4038
18:01:06.829794, 327.0025, 4158
18:01:06.829859, 327.005, 4139
18:01:06.829887, 327.0075, 4133
18:01:06.829913, 327.01, 4118
18:01:06.858460, 327.0125, 4136
18:01:06.858569, 327.015, 4136
18:01:06.858630, 327.0175, 4072
18:01:06.858682, 327.02, 4166
18:01:06.859821, 327.0225, 4178
18:01:06.859920, 327.025, 4161
18:01:06.860013, 327.0275, 4137
18:01:06.860048, 327.03, 4152
18:01:06.883908, 327.0325, 4163
18:01:06.883985, 327.035, 4070
18:01:06.884010, 327.0375, 4172
18:01:06.884028, 327.04, 4171
18:01:06.884311, 327.0425, 4175
18:01:06.884335, 327.045, 4145
18:01:06.884350, 327.0475, 4176
18:01:06.884364, 327.05, 4174
18:01:06.884378, 327.0525, 4073
18:01:06.884618, 327.055, 4158
18:01:06.884636, 327.0575, 4148
18:01:06.884650, 327.06, 4180
18:01:06.884664, 327.0625, 4177
18:01:06.891439, 327.065, 4196
18:01:06.891596, 327.0675, 4173
18:01:06.891659, 327.07, 4063
18:01:06.891713, 327.0725, 4170
18:01:06.919278, 327.075, 4156
18:01:06.919335, 327.0775, 4150
18:01:06.919358, 327.08, 4141
18:01:06.919378, 327.0825, 4172
18:01:06.919715, 327.085, 4159
18:01:06.919742, 327.0875, 4065
18:01:06.919757, 327.09, 4155
18:01:06.919772, 327.0925, 4165
18:01:06.926283, 327.095, 4166
18:01:06.926330, 327.0975, 4176
18:01:06.926360, 327.1, 4182
18:01:06.926393, 327.1025, 4165
18:01:06.949433, 327.105, 4055
18:01:06.949529, 327.1075, 4157
18:01:06.949571, 327.11, 4158
18:01:06.949609, 327.1125, 4161
18:01:06.950149, 327.115, 4152
18:01:06.950186, 327.1175, 4130
18:01:06.950217, 327.12, 4130
18:01:06.950247, 327.1225, 4050
18:01:06.952280, 327.125, 4124
18:01:06.952319, 327.1275, 4131
18:01:06.952353, 327.13, 4136
18:01:06.952384, 327.1325, 4099
18:01:06.978770, 327.135, 4151
18:01:06.978900, 327.1375, 4143
18:01:06.978937, 327.14, 4091
18:01:06.978972, 327.1425, 4173
18:01:06.979413, 327.145, 4174
18:01:06.979443, 327.1475, 4168
18:01:06.979459, 327.15, 4172
18:01:06.979474, 327.1525, 4178
18:01:06.979488, 327.155, 4172
18:01:07.012529, 327.1575, 4151
18:01:07.012606, 327.16, 4153
18:01:07.012629, 327.1625, 4154
18:01:07.012646, 327.165, 4139
18:01:07.013130, 327.1675, 4126
18:01:07.013167, 327.17, 4165
18:01:07.013184, 327.1725, 4187
18:01:07.013200, 327.175, 4162
18:01:07.013469, 327.1775, 4167
18:01:07.013492, 327.18, 4161
18:01:07.013508, 327.1825, 4191
18:01:07.013523, 327.185, 4166
18:01:07.013784, 327.1875, 4203
18:01:07.013808, 327.19, 4192
18:01:07.013823, 327.1925, 4120
18:01:07.013838, 327.195, 4196
18:01:07.031289, 327.1975, 4204
18:01:07.031365, 327.2, 4138
18:01:07.031394, 327.2025, 4155
18:01:07.031421, 327.205, 4187
18:01:07.049252, 327.2075, 4196
18:01:07.049348, 327.21, 4231
18:01:07.049375, 327.2125, 4317
18:01:07.049397, 327.215, 4396
18:01:07.084593, 327.2175, 4409
18:01:07.084648, 327.22, 4471
18:01:07.084670, 327.2225, 4497
18:01:07.084705, 327.225, 4452
18:01:07.085024, 327.2275, 4244
18:01:07.085048, 327.23, 4139
18:01:07.085064, 327.2325, 3919
18:01:07.085079, 327.235, 3599
18:01:07.085094, 327.2375, 3263
18:01:07.085352, 327.24, 2916
18:01:07.085371, 327.2425, 2464
18:01:07.085386, 327.245, 1922
18:01:07.085401, 327.2475, 1669
18:01:07.085657, 327.25, 1656
18:01:07.085677, 327.2525, 1828
18:01:07.085692, 327.255, 2362
18:01:07.085707, 327.2575, 3376
18:01:07.092500, 327.26, 4187
18:01:07.092582, 327.2625, 4592
18:01:07.092632, 327.265, 4890
18:01:07.092677, 327.2675, 4894
18:01:07.116589, 327.27, 4788
18:01:07.116710, 327.2725, 4658
18:01:07.116745, 327.275, 4551
18:01:07.116774, 327.2775, 4553
18:01:07.117213, 327.28, 4464
18:01:07.117243, 327.2825, 4542
18:01:07.117265, 327.285, 4520
18:01:07.117285, 327.2875, 4535
18:01:07.117306, 327.29, 4527
18:01:07.129701, 327.2925, 4537
18:01:07.130598, 327.295, 4537
18:01:07.130670, 327.2975, 4413
18:01:07.130694, 327.3, 4547
18:01:07.146668, 327.3025, 4510
18:01:07.146770, 327.305, 4498
18:01:07.146806, 327.3075, 4492
18:01:07.146835, 327.31, 4490
18:01:07.147478, 327.3125, 4458
18:01:07.147528, 327.315, 4364
18:01:07.147551, 327.3175, 4464
18:01:07.147574, 327.32, 4462
18:01:07.153416, 327.3225, 4448
18:01:07.153468, 327.325, 4427
18:01:07.153498, 327.3275, 4441
18:01:07.153525, 327.33, 4406
18:01:07.162391, 327.3325, 4358
18:01:07.162488, 327.335, 4373
18:01:07.162528, 327.3375, 4369
18:01:07.162562, 327.34, 4367
18:01:07.179987, 327.3425, 4356
18:01:07.180077, 327.345, 4385
18:01:07.180115, 327.3475, 4372
18:01:07.180142, 327.35, 4275
18:01:07.180517, 327.3525, 4365
18:01:07.180552, 327.355, 4359
18:01:07.180569, 327.3575, 4330
18:01:07.180584, 327.36, 4322
18:01:07.180599, 327.3625, 4322
18:01:07.188504, 327.365, 4320
18:01:07.188577, 327.3675, 4231
18:01:07.188613, 327.37, 4296
18:01:07.188645, 327.3725, 4290
18:01:07.218696, 327.375, 4277
18:01:07.218771, 327.3775, 4279
18:01:07.218798, 327.38, 4276
18:01:07.218820, 327.3825, 4272
18:01:07.219227, 327.385, 4234
18:01:07.219255, 327.3875, 4286
18:01:07.219276, 327.39, 4276
18:01:07.219292, 327.3925, 4254
18:01:07.248186, 327.395, 4257
18:01:07.248308, 327.3975, 4261
18:01:07.248344, 327.4, 4256
18:01:07.248390, 327.4025, 4128
18:01:07.248895, 327.405, 4267
18:01:07.248936, 327.4075, 4263
18:01:07.248959, 327.41, 4245
18:01:07.248981, 327.4125, 4236
18:01:07.250795, 327.415, 4243
18:01:07.250828, 327.4175, 4238
18:01:07.250877, 327.42, 4141
18:01:07.250901, 327.4225, 4269
18:01:07.252037, 327.425, 4280
18:01:07.252067, 327.4275, 4253
18:01:07.252089, 327.43, 4136
18:01:07.252111, 327.4325, 4262
18:01:07.281222, 327.435, 4263
18:01:07.281336, 327.4375, 4163
18:01:07.281378, 327.44, 4239
18:01:07.281414, 327.4425, 4246
18:01:07.282085, 327.445, 4208
18:01:07.282135, 327.4475, 4194
18:01:07.282162, 327.45, 4185
18:01:07.282188, 327.4525, 4209
18:01:07.295930, 327.455, 4136
18:01:07.295991, 327.4575, 4217
18:01:07.296012, 327.46, 4227
18:01:07.296031, 327.4625, 4210
18:01:07.296049, 327.465, 4193
18:01:07.296924, 327.4675, 4199
18:01:07.296983, 327.47, 4200
18:01:07.297028, 327.4725, 4104
18:01:07.297051, 327.475, 4185
18:01:07.322179, 327.4775, 4189
18:01:07.322243, 327.48, 4187
18:01:07.322267, 327.4825, 4149
18:01:07.322287, 327.485, 4217
18:01:07.323045, 327.4875, 4221
18:01:07.323082, 327.49, 4151
18:01:07.323103, 327.4925, 4226
18:01:07.323138, 327.495, 4212
18:01:07.328915, 327.4975, 4197
18:01:07.328948, 327.5, 4174
18:01:07.328966, 327.5025, 4203
18:01:07.329024, 327.505, 4178
18:01:07.347635, 327.5075, 4072
18:01:07.347757, 327.51, 4190
18:01:07.347788, 327.5125, 4189
18:01:07.347809, 327.515, 4196
18:01:07.348156, 327.5175, 4170
18:01:07.348189, 327.52, 4172
18:01:07.348205, 327.5225, 4166
18:01:07.348220, 327.525, 4084
18:01:07.354665, 327.5275, 4161
18:01:07.354729, 327.53, 4148
18:01:07.354758, 327.5325, 4136
18:01:07.354794, 327.535, 4135
18:01:07.363911, 327.5375, 4135
18:01:07.364019, 327.54, 4119
18:01:07.364045, 327.5425, 4051
18:01:07.364066, 327.545, 4157
18:01:07.364087, 327.5475, 4139
18:01:07.386704, 327.55, 4135
18:01:07.386781, 327.5525, 4139
18:01:07.386816, 327.555, 4137
18:01:07.386863, 327.5575, 4136
18:01:07.389882, 327.56, 4098
18:01:07.389951, 327.5625, 4122
18:01:07.390000, 327.565, 4126
18:01:07.390045, 327.5675, 4121
18:01:07.419859, 327.57, 4127
18:01:07.419935, 327.5725, 4136
18:01:07.419968, 327.575, 4113
18:01:07.419994, 327.5775, 4057
18:01:07.420449, 327.58, 4154
18:01:07.420481, 327.5825, 4152
18:01:07.420501, 327.585, 4152
18:01:07.420520, 327.5875, 4161
18:01:07.420849, 327.59, 4165
18:01:07.420874, 327.5925, 4172
18:01:07.420893, 327.595, 4078
18:01:07.420911, 327.5975, 4186
18:01:07.482965, 327.6, 4190
18:01:07.483107, 327.6025, 4180
18:01:07.483134, 327.605, 4190
18:01:07.483155, 327.6075, 4212
18:01:07.483588, 327.61, 4183
18:01:07.483626, 327.6125, 4091
18:01:07.483642, 327.615, 4187
18:01:07.483658, 327.6175, 4181
18:01:07.483923, 327.62, 4164
18:01:07.483947, 327.6225, 4180
18:01:07.483963, 327.625, 4193
18:01:07.483978, 327.6275, 4184
18:01:07.483992, 327.63, 4160
18:01:07.484252, 327.6325, 4163
18:01:07.484274, 327.635, 4163
18:01:07.484288, 327.6375, 4157
18:01:07.484303, 327.64, 4160
18:01:07.484555, 327.6425, 4170
18:01:07.484575, 327.645, 4142
18:01:07.484589, 327.6475, 4040
18:01:07.484603, 327.65, 4162
18:01:07.484869, 327.6525, 4225
18:01:07.484888, 327.655, 4197
18:01:07.484903, 327.6575, 4171
18:01:07.484916, 327.66, 4181
18:01:07.494976, 327.6625, 4185
18:01:07.495027, 327.665, 4059
18:01:07.495043, 327.6675, 4192
18:01:07.495057, 327.67, 4196
18:01:07.525072, 327.6725, 4190
18:01:07.525127, 327.675, 4185
18:01:07.525194, 327.6775, 4172
18:01:07.525218, 327.68, 4159
18:01:07.525515, 327.6825, 4110
18:01:07.525537, 327.685, 4169
18:01:07.525552, 327.6875, 4190
18:01:07.525567, 327.69, 4161
18:01:07.533741, 327.6925, 4164
18:01:07.533815, 327.695, 4170
18:01:07.533847, 327.6975, 4159
18:01:07.533969, 327.7, 4095
18:01:07.533998, 327.7025, 4163
18:01:07.560911, 327.705, 4156
18:01:07.560992, 327.7075, 4153
18:01:07.561073, 327.71, 4116
18:01:07.561126, 327.7125, 4185
18:01:07.561519, 327.715, 4166
18:01:07.561546, 327.7175, 4032
18:01:07.561566, 327.72, 4171
18:01:07.561584, 327.7225, 4157
18:01:07.561953, 327.725, 4143
18:01:07.561980, 327.7275, 4144
18:01:07.562000, 327.73, 4137
18:01:07.562018, 327.7325, 4146
18:01:07.564838, 327.735, 4123
18:01:07.564925, 327.7375, 4149
18:01:07.565451, 327.74, 4144
18:01:07.565531, 327.7425, 4159
18:01:07.585682, 327.745, 4159
18:01:07.585765, 327.7475, 4168
18:01:07.585800, 327.75, 4150
18:01:07.585833, 327.7525, 4086
18:01:07.586318, 327.755, 4155
18:01:07.586353, 327.7575, 4174
18:01:07.586377, 327.76, 4169
18:01:07.586400, 327.7625, 4170
18:01:07.591151, 327.765, 4165
18:01:07.591174, 327.7675, 4172
18:01:07.591190, 327.77, 4097
18:01:07.591205, 327.7725, 4178
18:01:07.616094, 327.775, 4189
18:01:07.616162, 327.7775, 4168
18:01:07.616196, 327.78, 4178
18:01:07.616215, 327.7825, 4200
18:01:07.616941, 327.785, 4194
18:01:07.616985, 327.7875, 4097
18:01:07.617001, 327.79, 4158
18:01:07.617016, 327.7925, 4160
18:01:07.626279, 327.795, 4155
18:01:07.626312, 327.7975, 4166
18:01:07.626329, 327.8, 4158
18:01:07.626344, 327.8025, 4169
18:01:07.626359, 327.805, 4106
18:01:07.656468, 327.8075, 4200
18:01:07.656539, 327.81, 4182
18:01:07.656568, 327.8125, 4187
18:01:07.656591, 327.815, 4206
18:01:07.659843, 327.8175, 4206
18:01:07.659940, 327.82, 4205
18:01:07.659965, 327.8225, 4109
18:01:07.659988, 327.825, 4170
18:01:07.660391, 327.8275, 4167
18:01:07.660425, 327.83, 4161
18:01:07.660448, 327.8325, 4152
18:01:07.660471, 327.835, 4177
18:01:07.687057, 327.8375, 4179
18:01:07.687117, 327.84, 4068
18:01:07.687166, 327.8425, 4204
18:01:07.687189, 327.845, 4206
18:01:07.687496, 327.8475, 4186
18:01:07.687521, 327.85, 4170
18:01:07.687537, 327.8525, 4190
18:01:07.687552, 327.855, 4177
18:01:07.687810, 327.8575, 4104
18:01:07.687829, 327.86, 4213
18:01:07.687845, 327.8625, 4211
18:01:07.687859, 327.865, 4193
18:01:07.696205, 327.8675, 4166
18:01:07.696285, 327.87, 4196
18:01:07.696334, 327.8725, 4211
18:01:07.696379, 327.875, 4107
18:01:07.696425, 327.8775, 4199
18:01:07.720721, 327.88, 4197
18:01:07.720839, 327.8825, 4193
18:01:07.720869, 327.885, 4167
18:01:07.720889, 327.8875, 4173
18:01:07.721247, 327.89, 4165
18:01:07.721272, 327.8925, 4037
18:01:07.721287, 327.895, 4165
18:01:07.721302, 327.8975, 4186
18:01:07.731942, 327.9, 4198
18:01:07.731989, 327.9025, 4157
18:01:07.732009, 327.905, 4195
18:01:07.732027, 327.9075, 4215
18:01:07.766092, 327.91, 4163
18:01:07.766154, 327.9125, 4208
18:01:07.766188, 327.915, 4202
18:01:07.766207, 327.9175, 4173
18:01:07.767194, 327.92, 4163
18:01:07.767227, 327.9225, 4180
18:01:07.767296, 327.925, 4190
18:01:07.767382, 327.9275, 4108
18:01:07.768510, 327.93, 4191
18:01:07.768554, 327.9325, 4177
18:01:07.768579, 327.935, 4193
18:01:07.768622, 327.9375, 4183
18:01:07.769062, 327.94, 4169
18:01:07.769632, 327.9425, 4176
18:01:07.769729, 327.945, 4089
18:01:07.769762, 327.9475, 4149
18:01:07.769808, 327.95, 4142
18:01:07.786679, 327.9525, 4155
18:01:07.786733, 327.955, 4160
18:01:07.786768, 327.9575, 4176
18:01:07.786829, 327.96, 4181
18:01:07.805205, 327.9625, 4056
18:01:07.805275, 327.965, 4177
18:01:07.805305, 327.9675, 4158
18:01:07.805331, 327.97, 4151
18:01:07.805802, 327.9725, 4164
18:01:07.805837, 327.975, 4178
18:01:07.805859, 327.9775, 4173
18:01:07.805879, 327.98, 4100
18:01:07.838978, 327.9825, 4200
18:01:07.839053, 327.985, 4173
18:01:07.839081, 327.9875, 4156
18:01:07.839107, 327.99, 4155
18:01:07.839545, 327.9925, 4154
18:01:07.839575, 327.995, 4140
18:01:07.839594, 327.9975, 4090
18:01:07.839613, 328.0, 4178
18:01:07.839972, 328.0025, 4177
18:01:07.839999, 328.005, 4169
18:01:07.840018, 328.0075, 4150
18:01:07.840036, 328.01, 4200
18:01:07.844469, 328.0125, 4197
18:01:07.844510, 328.015, 4066
18:01:07.844538, 328.0175, 4187
18:01:07.844573, 328.02, 4189
18:01:07.867329, 328.0225, 4155
18:01:07.867418, 328.025, 4169
18:01:07.867442, 328.0275, 4171
18:01:07.867461, 328.03, 4171
18:01:07.867481, 328.0325, 4104
18:01:07.867840, 328.035, 4176
18:01:07.867870, 328.0375, 4165
18:01:07.867886, 328.04, 4186
18:01:07.870702, 328.0425, 4164
18:01:07.870735, 328.045, 4170
18:01:07.870750, 328.0475, 4172
18:01:07.870764, 328.05, 4089
18:01:07.906340, 328.0525, 4177
18:01:07.906425, 328.055, 4191
18:01:07.906456, 328.0575, 4175
18:01:07.906483, 328.06, 4152
18:01:07.906508, 328.0625, 4140
18:01:07.906990, 328.065, 4133
18:01:07.907019, 328.0675, 4115
18:01:07.907039, 328.07, 4151
18:01:07.907058, 328.0725, 4152
18:01:07.907388, 328.075, 4160
18:01:07.907413, 328.0775, 4144
18:01:07.907432, 328.08, 4119
18:01:07.907450, 328.0825, 4129
18:01:07.916018, 328.085, 4020
18:01:07.916080, 328.0875, 4144
18:01:07.916106, 328.09, 4169
18:01:07.916132, 328.0925, 4165
18:01:07.937171, 328.095, 4162
18:01:07.937276, 328.0975, 4169
18:01:07.937331, 328.1, 4161
18:01:07.937373, 328.1025, 4074
18:01:07.937917, 328.105, 4172
18:01:07.937951, 328.1075, 4180
18:01:07.937975, 328.11, 4178
18:01:07.937998, 328.1125, 4153
18:01:07.940795, 328.115, 4145
18:01:07.940817, 328.1175, 4148
18:01:07.940833, 328.12, 4041
18:01:07.940848, 328.1225, 4191
18:01:07.950023, 328.125, 4173
18:01:07.950115, 328.1275, 4179
18:01:07.950136, 328.13, 4154
18:01:07.950153, 328.1325, 4175
18:01:07.970894, 328.135, 4164
18:01:07.970990, 328.1375, 4074
18:01:07.971039, 328.14, 4191
18:01:07.971073, 328.1425, 4195
18:01:07.975804, 328.145, 4189
18:01:07.975829, 328.1475, 4190
18:01:07.975845, 328.15, 4160
18:01:07.975860, 328.1525, 4159
18:01:07.975875, 328.155, 4082
18:01:08.004640, 328.1575, 4201
18:01:08.004732, 328.16, 4199
18:01:08.004769, 328.1625, 4223
18:01:08.005336, 328.165, 4251
18:01:08.005372, 328.1675, 4368
18:01:08.005397, 328.17, 4408
18:01:08.005421, 328.1725, 4350
18:01:08.005444, 328.175, 4460
18:01:08.005846, 328.1775, 4481
18:01:08.005875, 328.18, 4404
18:01:08.005899, 328.1825, 4228
18:01:08.005921, 328.185, 4007
18:01:08.010967, 328.1875, 3739
18:01:08.010992, 328.19, 3336
18:01:08.011007, 328.1925, 3165
18:01:08.011022, 328.195, 2765
18:01:08.039946, 328.1975, 2227
18:01:08.040047, 328.2, 1926
18:01:08.040090, 328.2025, 1744
18:01:08.040124, 328.205, 1807
18:01:08.040683, 328.2075, 2130
18:01:08.040724, 328.21, 2828
18:01:08.040757, 328.2125, 3770
18:01:08.040787, 328.215, 4620
18:01:08.045972, 328.2175, 4948
18:01:08.046018, 328.22, 5091
18:01:08.046051, 328.2225, 5075
18:01:08.046082, 328.225, 4797
18:01:08.073561, 328.2275, 4792
18:01:08.073630, 328.23, 4659
18:01:08.073655, 328.2325, 4585
18:01:08.073675, 328.235, 4552
18:01:08.074035, 328.2375, 4511
18:01:08.074062, 328.24, 4480
18:01:08.074079, 328.2425, 4412
18:01:08.074094, 328.245, 4508
18:01:08.074361, 328.2475, 4522
18:01:08.074381, 328.25, 4506
18:01:08.074396, 328.2525, 4493
18:01:08.074411, 328.255, 4503
18:01:08.107010, 328.2575, 4456
18:01:08.107095, 328.26, 4369
18:01:08.107124, 328.2625, 4436
18:01:08.107153, 328.265, 4445
18:01:08.107614, 328.2675, 4423
18:01:08.107642, 328.27, 4419
18:01:08.107662, 328.2725, 4385
18:01:08.107680, 328.275, 4399
18:01:08.108008, 328.2775, 4300
18:01:08.108032, 328.28, 4376
18:01:08.108051, 328.2825, 4376
18:01:08.108069, 328.285, 4360
18:01:08.108088, 328.2875, 4370
18:01:08.138250, 328.29, 4368
18:01:08.138328, 328.2925, 4352
18:01:08.138355, 328.295, 4273
18:01:08.138375, 328.2975, 4357
18:01:08.138760, 328.3, 4354
18:01:08.138785, 328.3025, 4321
18:01:08.138801, 328.305, 4310
18:01:08.138816, 328.3075, 4311
18:01:08.168375, 328.31, 4297
18:01:08.168450, 328.3125, 4188
18:01:08.168480, 328.315, 4278
18:01:08.168508, 328.3175, 4276
18:01:08.168993, 328.32, 4267
18:01:08.169028, 328.3225, 4260
18:01:08.169046, 328.325, 4279
18:01:08.169062, 328.3275, 4284
18:01:08.169343, 328.33, 4193
18:01:08.169368, 328.3325, 4284
18:01:08.169385, 328.335, 4266
18:01:08.169400, 328.3375, 4239
18:01:08.169675, 328.34, 4204
18:01:08.169698, 328.3425, 4245
18:01:08.169715, 328.345, 4244
18:01:08.169730, 328.3475, 4131
18:01:08.177337, 328.35, 4224
18:01:08.177371, 328.3525, 4217
18:01:08.177388, 328.355, 4223
18:01:08.177403, 328.3575, 4217
18:01:08.207164, 328.36, 4214
18:01:08.207235, 328.3625, 4217
18:01:08.207265, 328.365, 4134
18:01:08.207339, 328.3675, 4214
18:01:08.241009, 328.37, 4201
18:01:08.241078, 328.3725, 4187
18:01:08.241110, 328.375, 4184
18:01:08.241138, 328.3775, 4195
18:01:08.241237, 328.38, 4225
18:01:08.241683, 328.3825, 4182
18:01:08.241721, 328.385, 4206
18:01:08.241766, 328.3875, 4214
18:01:08.241822, 328.39, 4215
18:01:08.242759, 328.3925, 4203
18:01:08.242827, 328.395, 4219
18:01:08.242960, 328.3975, 4189
18:01:08.243002, 328.4, 4081
18:01:08.243662, 328.4025, 4196
18:01:08.243711, 328.405, 4185
18:01:08.243749, 328.4075, 4215
18:01:08.243786, 328.41, 4096
18:01:08.244439, 328.4125, 4229
18:01:08.244486, 328.415, 4213
18:01:08.244523, 328.4175, 4115
18:01:08.244559, 328.42, 4222
18:01:08.247500, 328.4225, 4198
18:01:08.247551, 328.425, 4218
18:01:08.247589, 328.4275, 4193
18:01:08.247625, 328.43, 4188
18:01:08.279044, 328.4325, 4202
18:01:08.279264, 328.435, 4098
18:01:08.279367, 328.4375, 4192
18:01:08.279465, 328.44, 4201
18:01:08.310698, 328.4425, 4226
18:01:08.310883, 328.445, 4204
18:01:08.310987, 328.4475, 4212
18:01:08.311045, 328.45, 4204
18:01:08.312064, 328.4525, 4108
18:01:08.312148, 328.455, 4176
18:01:08.312205, 328.4575, 4190
18:01:08.312256, 328.46, 4195
18:01:08.312307, 328.4625, 4162
18:01:08.313224, 328.465, 4184
18:01:08.313293, 328.4675, 4163
18:01:08.313345, 328.47, 4035
18:01:08.313395, 328.4725, 4154
18:01:08.314305, 328.475, 4177
18:01:08.314372, 328.4775, 4189
18:01:08.314424, 328.48, 4068
18:01:08.314476, 328.4825, 4196
18:01:08.315449, 328.485, 4179
18:01:08.315521, 328.4875, 4085
18:01:08.315574, 328.49, 4180
18:01:08.315625, 328.4925, 4174
18:01:08.341578, 328.495, 4166
18:01:08.341751, 328.4975, 4159
18:01:08.341848, 328.5, 4169
18:01:08.341986, 328.5025, 4175
18:01:08.343139, 328.505, 4134
18:01:08.343225, 328.5075, 4170
18:01:08.343283, 328.51, 4172
18:01:08.343334, 328.5125, 4177
18:01:08.370772, 328.515, 4186
18:01:08.370838, 328.5175, 4203
18:01:08.370917, 328.52, 4199
18:01:08.370950, 328.5225, 4093
18:01:08.371502, 328.525, 4198
18:01:08.371538, 328.5275, 4199
18:01:08.371561, 328.53, 4218
18:01:08.371583, 328.5325, 4196
18:01:08.371966, 328.535, 4189
18:01:08.371995, 328.5375, 4191
18:01:08.372017, 328.54, 4102
18:01:08.372039, 328.5425, 4238
18:01:08.372060, 328.545, 4263
18:01:08.378585, 328.5475, 4256
18:01:08.378648, 328.55, 4209
18:01:08.378678, 328.5525, 4248
18:01:08.378704, 328.555, 4235
18:01:08.404478, 328.5575, 4182
18:01:08.404606, 328.56, 4234
18:01:08.404641, 328.5625, 4218
18:01:08.404671, 328.565, 4228
18:01:08.405072, 328.5675, 4217
18:01:08.405136, 328.57, 4233
18:01:08.405157, 328.5725, 4225
18:01:08.405176, 328.575, 4131
18:01:08.405649, 328.5775, 4228
18:01:08.405701, 328.58, 4214
18:01:08.405721, 328.5825, 4218
18:01:08.405739, 328.585, 4206
18:01:08.413285, 328.5875, 4217
18:01:08.413361, 328.59, 4194
18:01:08.413390, 328.5925, 4105
18:01:08.413417, 328.595, 4196
18:01:08.442192, 328.5975, 4194
18:01:08.442294, 328.6, 4173
18:01:08.442330, 328.6025, 4151
18:01:08.442358, 328.605, 4177
18:01:08.442819, 328.6075, 4145
18:01:08.442874, 328.61, 4081
18:01:08.442902, 328.6125, 4185
18:01:08.442926, 328.615, 4188
18:01:08.448545, 328.6175, 4196
18:01:08.448607, 328.62, 4184
18:01:08.448652, 328.6225, 4203
18:01:08.448693, 328.625, 4201
18:01:08.479788, 328.6275, 4113
18:01:08.479830, 328.63, 4215
18:01:08.479855, 328.6325, 4219
18:01:08.479877, 328.635, 4194
18:01:08.479899, 328.6375, 4173
18:01:08.483377, 328.64, 4201
18:01:08.483413, 328.6425, 4162
18:01:08.483438, 328.645, 4068
18:01:08.483461, 328.6475, 4156
18:01:08.485832, 328.65, 4164
18:01:08.485978, 328.6525, 4172
18:01:08.486042, 328.655, 4121
18:01:08.486071, 328.6575, 4191
18:01:08.504795, 328.66, 4191
18:01:08.504880, 328.6625, 4049
18:01:08.504912, 328.665, 4170
18:01:08.504968, 328.6675, 4197
18:01:08.505458, 328.67, 4181
18:01:08.505502, 328.6725, 4184
18:01:08.505525, 328.675, 4186
18:01:08.505546, 328.6775, 4177
18:01:08.509529, 328.68, 4144
18:01:08.509565, 328.6825, 4163
18:01:08.509589, 328.685, 4158
18:01:08.509610, 328.6875, 4139
18:01:08.519437, 328.69, 4127
18:01:08.519531, 328.6925, 4157
18:01:08.519565, 328.695, 4182
18:01:08.519597, 328.6975, 4102
18:01:08.547241, 328.7, 4183
18:01:08.547319, 328.7025, 4172
18:01:08.547413, 328.705, 4187
18:01:08.547475, 328.7075, 4199
18:01:08.547925, 328.71, 4204
18:01:08.547957, 328.7125, 4188
18:01:08.547980, 328.715, 4167
18:01:08.548002, 328.7175, 4202
18:01:08.548025, 328.72, 4199
18:01:08.553600, 328.7225, 4186
18:01:08.553664, 328.725, 4176
18:01:08.553702, 328.7275, 4210
18:01:08.553726, 328.73, 4156
18:01:08.580127, 328.7325, 4131
18:01:08.580201, 328.735, 4180
18:01:08.580288, 328.7375, 4170
18:01:08.580346, 328.74, 4164
18:01:08.580751, 328.7425, 4175
18:01:08.580780, 328.745, 4170
18:01:08.580804, 328.7475, 4185
18:01:08.580827, 328.75, 4093
18:01:08.581212, 328.7525, 4175
18:01:08.581239, 328.755, 4151
18:01:08.581260, 328.7575, 4144
18:01:08.581280, 328.76, 4130
18:01:08.610159, 328.7625, 4140
18:01:08.610244, 328.765, 4142
18:01:08.610320, 328.7675, 4059
18:01:08.610356, 328.77, 4141
18:01:08.617203, 328.7725, 4127
18:01:08.617243, 328.775, 4124
18:01:08.617267, 328.7775, 4131
18:01:08.617290, 328.78, 4157
18:01:08.619174, 328.7825, 4150
18:01:08.619222, 328.785, 4128
18:01:08.619252, 328.7875, 4161
18:01:08.619311, 328.79, 4136
18:01:08.646425, 328.7925, 4144
18:01:08.646505, 328.795, 4141
18:01:08.646582, 328.7975, 4158
18:01:08.646629, 328.8, 4161
18:01:08.646688, 328.8025, 4042
18:01:08.647143, 328.805, 4180
18:01:08.647177, 328.8075, 4179
18:01:08.647202, 328.81, 4196
18:01:08.647227, 328.8125, 4195
18:01:08.652930, 328.815, 4190
18:01:08.653000, 328.8175, 4187
18:01:08.653032, 328.82, 4100
18:01:08.653061, 328.8225, 4191
18:01:08.671326, 328.825, 4181
18:01:08.671413, 328.8275, 4162
18:01:08.671447, 328.83, 4156
18:01:08.671476, 328.8325, 4168
18:01:08.671986, 328.835, 4150
18:01:08.672024, 328.8375, 4039
18:01:08.672048, 328.84, 4176
18:01:08.672071, 328.8425, 4174
18:01:08.704675, 328.845, 4133
18:01:08.704757, 328.8475, 4159
18:01:08.704833, 328.85, 4193
18:01:08.704867, 328.8525, 4194
18:01:08.705353, 328.855, 4134
18:01:08.705398, 328.8575, 4174
18:01:08.705425, 328.86, 4193
18:01:08.705451, 328.8625, 4183
18:01:08.705881, 328.865, 4165
18:01:08.705916, 328.8675, 4163
18:01:08.705942, 328.87, 4163
18:01:08.705966, 328.8725, 4049
18:01:08.706373, 328.875, 4203
18:01:08.706407, 328.8775, 4161
18:01:08.706432, 328.88, 4162
18:01:08.706456, 328.8825, 4170
18:01:08.710946, 328.885, 4171
18:01:08.710987, 328.8875, 4147
18:01:08.711018, 328.89, 4078
18:01:08.711044, 328.8925, 4161
18:01:08.720491, 328.895, 4159
18:01:08.720559, 328.8975, 4171
18:01:08.720591, 328.9, 4175
18:01:08.720622, 328.9025, 4164
18:01:08.740430, 328.905, 4156
18:01:08.740526, 328.9075, 4100
18:01:08.740565, 328.91, 4147
18:01:08.740598, 328.9125, 4136
18:01:08.745905, 328.915, 4142
18:01:08.745941, 328.9175, 4145
18:01:08.745964, 328.92, 4121
18:01:08.745986, 328.9225, 4087
18:01:08.746008, 328.925, 4006
18:01:08.772294, 328.9275, 4130
18:01:08.772384, 328.93, 4127
18:01:08.772475, 328.9325, 4120
18:01:08.772517, 328.935, 4108
18:01:08.773081, 328.9375, 4113
18:01:08.773134, 328.94, 4082
18:01:08.773161, 328.9425, 4019
18:01:08.773189, 328.945, 4119
18:01:08.773688, 328.9475, 4121
18:01:08.773732, 328.95, 4122
18:01:08.773762, 328.9525, 4132
18:01:08.773790, 328.955, 4158
18:01:08.805377, 328.9575, 4163
18:01:08.805460, 328.96, 4101
18:01:08.805538, 328.9625, 4182
18:01:08.805576, 328.965, 4182
18:01:08.806133, 328.9675, 4165
18:01:08.806187, 328.97, 4177
18:01:08.806213, 328.9725, 4191
18:01:08.806240, 328.975, 4192
18:01:08.807106, 328.9775, 4085
18:01:08.807148, 328.98, 4184
18:01:08.807170, 328.9825, 4160
18:01:08.807194, 328.985, 4148
18:01:08.807215, 328.9875, 4143
18:01:08.816129, 328.99, 4150
18:01:08.816165, 328.9925, 4143
18:01:08.816187, 328.995, 4066
18:01:08.816208, 328.9975, 4169
18:01:08.839633, 329.0, 4177
18:01:08.839690, 329.0025, 4160
18:01:08.839712, 329.005, 4182
18:01:08.839733, 329.0075, 4191
18:01:08.840114, 329.01, 4189
18:01:08.840140, 329.0125, 4099
18:01:08.840155, 329.015, 4194
18:01:08.840169, 329.0175, 4206
18:01:08.873006, 329.02, 4182
18:01:08.873112, 329.0225, 4185
18:01:08.873148, 329.025, 4199
18:01:08.873177, 329.0275, 4218
18:01:08.873694, 329.03, 4247
18:01:08.873737, 329.0325, 4368
18:01:08.875271, 329.035, 4420
18:01:08.875310, 329.0375, 4418
18:01:08.875690, 329.04, 4474
18:01:08.875718, 329.0425, 4501
18:01:08.875739, 329.045, 4436
18:01:08.875759, 329.0475, 4175
18:01:08.877001, 329.05, 4097
18:01:08.877029, 329.0525, 3826
18:01:08.877050, 329.055, 3467
18:01:08.877070, 329.0575, 3168
18:01:08.886406, 329.06, 2747
18:01:08.886490, 329.0625, 2202
18:01:08.886574, 329.065, 1754
18:01:08.886627, 329.0675, 1604
18:01:08.906914, 329.07, 1675
18:01:08.906988, 329.0725, 1996
18:01:08.907011, 329.075, 2739
18:01:08.907032, 329.0775, 3719
18:01:08.912793, 329.08, 4478
18:01:08.912928, 329.0825, 4775
18:01:08.912999, 329.085, 4991
18:01:08.913051, 329.0875, 4953
18:01:08.921140, 329.09, 4813
18:01:08.921181, 329.0925, 4646
18:01:08.921219, 329.095, 4575
18:01:08.921239, 329.0975, 4550
18:01:08.921257, 329.1, 4461
18:01:08.939298, 329.1025, 4502
18:01:08.939364, 329.105, 4479
18:01:08.939387, 329.1075, 4483
18:01:08.939407, 329.11, 4474
18:01:08.939794, 329.1125, 4500
18:01:08.939829, 329.115, 4503
18:01:08.939851, 329.1175, 4432
18:01:08.939871, 329.12, 4491
18:01:08.947196, 329.1225, 4486
18:01:08.947265, 329.125, 4473
18:01:08.947282, 329.1275, 4460
18:01:08.947297, 329.13, 4449
18:01:08.975813, 329.1325, 4412
18:01:08.975897, 329.135, 4342
18:01:08.975938, 329.1375, 4420
18:01:08.975966, 329.14, 4412
18:01:08.976401, 329.1425, 4410
18:01:08.976429, 329.145, 4390
18:01:08.976449, 329.1475, 4383
18:01:08.976467, 329.15, 4371
18:01:08.982688, 329.1525, 4266
18:01:08.982788, 329.155, 4365
18:01:08.982916, 329.1575, 4358
18:01:08.982981, 329.16, 4322
18:01:09.006835, 329.1625, 4326
18:01:09.007008, 329.165, 4341
18:01:09.007051, 329.1675, 4327
18:01:09.007107, 329.17, 4240
18:01:09.007659, 329.1725, 4319
18:01:09.007706, 329.175, 4317
18:01:09.007732, 329.1775, 4310
18:01:09.007755, 329.18, 4309
18:01:09.017831, 329.1825, 4300
18:01:09.017939, 329.185, 4296
18:01:09.017996, 329.1875, 4209
18:01:09.018053, 329.19, 4285
18:01:09.039497, 329.1925, 4271
18:01:09.039569, 329.195, 4270
18:01:09.039590, 329.1975, 4246
18:01:09.039606, 329.2, 4258
18:01:09.039625, 329.2025, 4260
18:01:09.040029, 329.205, 4158
18:01:09.040065, 329.2075, 4240
18:01:09.040089, 329.21, 4225
18:01:09.040105, 329.2125, 4219
18:01:09.055051, 329.215, 4208
18:01:09.055148, 329.2175, 4237
18:01:09.055198, 329.22, 4217
18:01:09.055232, 329.2225, 4143
18:01:09.056685, 329.225, 4238
18:01:09.056732, 329.2275, 4224
18:01:09.056758, 329.23, 4192
18:01:09.056785, 329.2325, 4202
18:01:09.079367, 329.235, 4209
18:01:09.079461, 329.2375, 4229
18:01:09.079504, 329.24, 4087
18:01:09.079541, 329.2425, 4224
18:01:09.080070, 329.245, 4242
18:01:09.080107, 329.2475, 4216
18:01:09.080138, 329.25, 4204
18:01:09.080167, 329.2525, 4200
18:01:09.087978, 329.255, 4195
18:01:09.088066, 329.2575, 4084
18:01:09.088105, 329.26, 4198
18:01:09.088140, 329.2625, 4213
18:01:09.109091, 329.265, 4201
18:01:09.109182, 329.2675, 4209
18:01:09.109224, 329.27, 4206
18:01:09.109260, 329.2725, 4195
18:01:09.109776, 329.275, 4107
18:01:09.109812, 329.2775, 4182
18:01:09.109841, 329.28, 4202
18:01:09.109870, 329.2825, 4175
18:01:09.140397, 329.285, 4180
18:01:09.140506, 329.2875, 4198
18:01:09.140565, 329.29, 4197
18:01:09.140619, 329.2925, 4117
18:01:09.141480, 329.295, 4209
18:01:09.141555, 329.2975, 4212
18:01:09.141601, 329.3, 4192
18:01:09.141642, 329.3025, 4185
18:01:09.142316, 329.305, 4211
18:01:09.142370, 329.3075, 4200
18:01:09.142413, 329.31, 4082
18:01:09.142455, 329.3125, 4223
18:01:09.142495, 329.315, 4226
18:01:09.148579, 329.3175, 4223
18:01:09.148637, 329.32, 4213
18:01:09.148683, 329.3225, 4224
18:01:09.148726, 329.325, 4230
18:01:09.173532, 329.3275, 4175
18:01:09.173634, 329.33, 4210
18:01:09.173675, 329.3325, 4213
18:01:09.173710, 329.335, 4198
18:01:09.174293, 329.3375, 4177
18:01:09.174339, 329.34, 4190
18:01:09.174370, 329.3425, 4181
18:01:09.174399, 329.345, 4118
18:01:09.174915, 329.3475, 4174
18:01:09.174973, 329.35, 4155
18:01:09.175015, 329.3525, 4152
18:01:09.175054, 329.355, 4145
18:01:09.207492, 329.3575, 4151
18:01:09.207631, 329.36, 4130
18:01:09.207746, 329.3625, 4054
18:01:09.207797, 329.365, 4169
18:01:09.208446, 329.3675, 4143
18:01:09.208509, 329.37, 4130
18:01:09.208551, 329.3725, 4139
18:01:09.208589, 329.375, 4152
18:01:09.209754, 329.3775, 4157
18:01:09.209804, 329.38, 4035
18:01:09.209844, 329.3825, 4178
18:01:09.209880, 329.385, 4181
18:01:09.242685, 329.3875, 4165
18:01:09.242774, 329.39, 4168
18:01:09.242833, 329.3925, 4164
18:01:09.242893, 329.395, 4174
18:01:09.243356, 329.3975, 4081
18:01:09.243390, 329.4, 4182
18:01:09.243421, 329.4025, 4190
18:01:09.243456, 329.405, 4184
18:01:09.243482, 329.4075, 4175
18:01:09.245849, 329.41, 4199
18:01:09.245883, 329.4125, 4201
18:01:09.245911, 329.415, 4077
18:01:09.245939, 329.4175, 4230
18:01:09.247128, 329.42, 4218
18:01:09.247163, 329.4225, 4209
18:01:09.247192, 329.425, 4086
18:01:09.247221, 329.4275, 4245
18:01:09.253179, 329.43, 4228
18:01:09.253214, 329.4325, 4136
18:01:09.253230, 329.435, 4218
18:01:09.253244, 329.4375, 4199
18:01:09.278892, 329.44, 4206
18:01:09.279001, 329.4425, 4203
18:01:09.279054, 329.445, 4200
18:01:09.279096, 329.4475, 4209
18:01:09.279783, 329.45, 4144
18:01:09.279823, 329.4525, 4202
18:01:09.279858, 329.455, 4197
18:01:09.279889, 329.4575, 4193
18:01:09.289824, 329.46, 4185
18:01:09.289891, 329.4625, 4184
18:01:09.289928, 329.465, 4177
18:01:09.289962, 329.4675, 4121
18:01:09.307796, 329.47, 4199
18:01:09.307895, 329.4725, 4179
18:01:09.307925, 329.475, 4168
18:01:09.307951, 329.4775, 4190
18:01:09.308447, 329.48, 4191
18:01:09.308490, 329.4825, 4191
18:01:09.308510, 329.485, 4115
18:01:09.308530, 329.4875, 4187
18:01:09.308550, 329.49, 4168
18:01:09.324649, 329.4925, 4189
18:01:09.324694, 329.495, 4181
18:01:09.324715, 329.4975, 4203
18:01:09.324735, 329.5, 4175
18:01:09.342520, 329.5025, 4133
18:01:09.342610, 329.505, 4159
18:01:09.342637, 329.5075, 4167
18:01:09.342657, 329.51, 4183
18:01:09.343055, 329.5125, 4168
18:01:09.343091, 329.515, 4165
18:01:09.343111, 329.5175, 4163
18:01:09.343130, 329.52, 4078
18:01:09.350180, 329.5225, 4161
18:01:09.350267, 329.525, 4183
18:01:09.350320, 329.5275, 4159
18:01:09.350370, 329.53, 4138
18:01:09.375973, 329.5325, 4149
18:01:09.376069, 329.535, 4152
18:01:09.376094, 329.5375, 4070
18:01:09.376114, 329.54, 4172
18:01:09.376486, 329.5425, 4154
18:01:09.376515, 329.545, 4163
18:01:09.376531, 329.5475, 4150
18:01:09.376546, 329.55, 4164
18:01:09.385001, 329.5525, 4161
18:01:09.385082, 329.555, 4077
18:01:09.385128, 329.5575, 4195
18:01:09.385170, 329.56, 4188
18:01:09.413089, 329.5625, 4179
18:01:09.413158, 329.565, 4180
18:01:09.413183, 329.5675, 4171
18:01:09.413204, 329.57, 4156
18:01:09.413589, 329.5725, 4089
18:01:09.413617, 329.575, 4181
18:01:09.413633, 329.5775, 4186
18:01:09.413648, 329.58, 4183
18:01:09.413664, 329.5825, 4166
18:01:09.413934, 329.585, 4182
18:01:09.413953, 329.5875, 4160
18:01:09.413969, 329.59, 4073
18:01:09.413984, 329.5925, 4171
18:01:09.420346, 329.595, 4170
18:01:09.420438, 329.5975, 4166
18:01:09.420495, 329.6, 4170
18:01:09.420550, 329.6025, 4172
18:01:09.443640, 329.605, 4144
18:01:09.443723, 329.6075, 4070
18:01:09.443801, 329.61, 4158
18:01:09.443837, 329.6125, 4167
18:01:09.445835, 329.615, 4159
18:01:09.445871, 329.6175, 4143
18:01:09.445895, 329.62, 4168
18:01:09.445917, 329.6225, 4170
18:01:09.454427, 329.625, 4132
18:01:09.454453, 329.6275, 4162
18:01:09.454468, 329.63, 4143
18:01:09.454482, 329.6325, 4153
18:01:09.476860, 329.635, 4143
18:01:09.476927, 329.6375, 4160
18:01:09.476950, 329.64, 4177
18:01:09.476970, 329.6425, 4083
18:01:09.477327, 329.645, 4189
18:01:09.477353, 329.6475, 4148
18:01:09.477368, 329.65, 4147
18:01:09.477382, 329.6525, 4152
18:01:09.481036, 329.655, 4155
18:01:09.481081, 329.6575, 4135
18:01:09.481110, 329.66, 4045
18:01:09.481137, 329.6625, 4151
18:01:09.481163, 329.665, 4151
18:01:09.510654, 329.6675, 4154
18:01:09.510717, 329.67, 4134
18:01:09.510739, 329.6725, 4162
18:01:09.510759, 329.675, 4153
18:01:09.511215, 329.6775, 4133
18:01:09.511246, 329.68, 4163
18:01:09.511267, 329.6825, 4147
18:01:09.511288, 329.685, 4148
18:01:09.515900, 329.6875, 4153
18:01:09.515933, 329.69, 4155
18:01:09.516023, 329.6925, 4127
18:01:09.516078, 329.695, 4061
18:01:09.542040, 329.6975, 4167
18:01:09.542177, 329.7, 4178
18:01:09.542204, 329.7025, 4169
18:01:09.542225, 329.705, 4162
18:01:09.542553, 329.7075, 4178
18:01:09.542584, 329.71, 4171
18:01:09.542600, 329.7125, 4085
18:01:09.542615, 329.715, 4153
18:01:09.542907, 329.7175, 4145
18:01:09.542935, 329.72, 4149
18:01:09.542950, 329.7225, 4139
18:01:09.542964, 329.725, 4164
18:01:09.579892, 329.7275, 4155
18:01:09.579960, 329.73, 4087
18:01:09.579988, 329.7325, 4172
18:01:09.580013, 329.735, 4138
18:01:09.580502, 329.7375, 4135
18:01:09.580535, 329.74, 4144
18:01:09.580554, 329.7425, 4180
18:01:09.580573, 329.745, 4172
18:01:09.580592, 329.7475, 4066
18:01:09.580922, 329.75, 4158
18:01:09.580946, 329.7525, 4146
18:01:09.580965, 329.755, 4138
18:01:09.580984, 329.7575, 4116
18:01:09.585846, 329.76, 4126
18:01:09.585879, 329.7625, 4147
18:01:09.585899, 329.765, 4060
18:01:09.585918, 329.7675, 4135
18:01:09.618737, 329.77, 4149
18:01:09.618808, 329.7725, 4147
18:01:09.618833, 329.775, 4147
18:01:09.618899, 329.7775, 4166
18:01:09.619266, 329.78, 4170
18:01:09.619290, 329.7825, 4081
18:01:09.619304, 329.785, 4151
18:01:09.619318, 329.7875, 4142
