17:58:00.000146, 140.1675, 1754
17:58:00.000204, 140.17, 1820
17:58:00.000238, 140.1725, 2182
17:58:00.000268, 140.175, 2953
17:58:00.022685, 140.1775, 3821
17:58:00.022769, 140.18, 4625
17:58:00.022810, 140.1825, 4942
17:58:00.022870, 140.185, 4956
17:58:00.022906, 140.1875, 4834
17:58:00.023515, 140.19, 4681
17:58:00.023561, 140.1925, 4576
17:58:00.023592, 140.195, 4470
17:58:00.023621, 140.1975, 4563
17:58:00.026515, 140.2, 4540
17:58:00.026559, 140.2025, 4509
17:58:00.026589, 140.205, 4499
17:58:00.026636, 140.2075, 4532
17:58:00.035818, 140.21, 4531
17:58:00.035864, 140.2125, 4467
17:58:00.035939, 140.215, 4508
17:58:00.035971, 140.2175, 4521
17:58:00.058100, 140.22, 4515
17:58:00.058171, 140.2225, 4477
17:58:00.058200, 140.225, 4476
17:58:00.058227, 140.2275, 4477
17:58:00.061746, 140.23, 4428
17:58:00.061827, 140.2325, 4451
17:58:00.061878, 140.235, 4432
17:58:00.061923, 140.2375, 4448
17:58:00.087525, 140.24, 4438
17:58:00.087665, 140.2425, 4426
17:58:00.087748, 140.245, 4413
17:58:00.087793, 140.2475, 4328
17:58:00.088107, 140.25, 4394
17:58:00.088135, 140.2525, 4384
17:58:00.088150, 140.255, 4385
17:58:00.088165, 140.2575, 4374
17:58:00.088423, 140.26, 4371
17:58:00.088449, 140.2625, 4360
17:58:00.088463, 140.265, 4283
17:58:00.088478, 140.2675, 4365
17:58:00.123484, 140.27, 4367
17:58:00.123541, 140.2725, 4347
17:58:00.123581, 140.275, 4333
17:58:00.123603, 140.2775, 4323
17:58:00.123634, 140.28, 4309
17:58:00.123953, 140.2825, 4290
17:58:00.123977, 140.285, 4328
17:58:00.123992, 140.2875, 4287
17:58:00.124006, 140.29, 4299
17:58:00.124258, 140.2925, 4301
17:58:00.124277, 140.295, 4286
17:58:00.124291, 140.2975, 4271
17:58:00.124305, 140.3, 4199
17:58:00.131908, 140.3025, 4252
17:58:00.132001, 140.305, 4231
17:58:00.132056, 140.3075, 4243
17:58:00.132110, 140.31, 4214
17:58:00.158535, 140.3125, 4213
17:58:00.158634, 140.315, 4222
17:58:00.158658, 140.3175, 4180
17:58:00.158694, 140.32, 4232
17:58:00.158988, 140.3225, 4255
17:58:00.159010, 140.325, 4242
17:58:00.159025, 140.3275, 4242
17:58:00.159039, 140.33, 4239
17:58:00.166257, 140.3325, 4221
17:58:00.166286, 140.335, 4159
17:58:00.166302, 140.3375, 4230
17:58:00.166316, 140.34, 4227
17:58:00.188915, 140.3425, 4234
17:58:00.189030, 140.345, 4210
17:58:00.189178, 140.3475, 4199
17:58:00.189250, 140.35, 4218
17:58:00.189720, 140.3525, 4145
17:58:00.189761, 140.355, 4193
17:58:00.189786, 140.3575, 4184
17:58:00.189808, 140.36, 4179
17:58:00.189831, 140.3625, 4171
17:58:00.192729, 140.365, 4205
17:58:00.192772, 140.3675, 4205
17:58:00.192801, 140.37, 4137
17:58:00.192828, 140.3725, 4196
17:58:00.201245, 140.375, 4208
17:58:00.201273, 140.3775, 4198
17:58:00.201289, 140.38, 4207
17:58:00.201303, 140.3825, 4219
17:58:00.223791, 140.385, 4203
17:58:00.223884, 140.3875, 4141
17:58:00.223914, 140.39, 4209
17:58:00.223941, 140.3925, 4194
17:58:00.227614, 140.395, 4199
17:58:00.227656, 140.3975, 4189
17:58:00.227678, 140.4, 4194
17:58:00.227698, 140.4025, 4187
17:58:00.236843, 140.405, 4112
17:58:00.236919, 140.4075, 4209
17:58:00.236943, 140.41, 4201
17:58:00.236962, 140.4125, 4202
17:58:00.255990, 140.415, 4181
17:58:00.256070, 140.4175, 4192
17:58:00.256100, 140.42, 4188
17:58:00.256133, 140.4225, 4103
17:58:00.256602, 140.425, 4172
17:58:00.256634, 140.4275, 4146
17:58:00.256651, 140.43, 4180
17:58:00.256667, 140.4325, 4152
17:58:00.256682, 140.435, 4157
17:58:00.262982, 140.4375, 4146
17:58:00.263074, 140.44, 4085
17:58:00.263127, 140.4425, 4163
17:58:00.263173, 140.445, 4155
17:58:00.294317, 140.4475, 4116
17:58:00.294398, 140.45, 4107
17:58:00.294421, 140.4525, 4114
17:58:00.294442, 140.455, 4098
17:58:00.294829, 140.4575, 4066
17:58:00.294875, 140.46, 4095
17:58:00.294897, 140.4625, 4094
17:58:00.294913, 140.465, 4083
17:58:00.298184, 140.4675, 4100
17:58:00.298359, 140.47, 4108
17:58:00.298453, 140.4725, 4067
17:58:00.298539, 140.475, 4033
17:58:00.323123, 140.4775, 4118
17:58:00.323238, 140.48, 4130
17:58:00.323270, 140.4825, 4124
17:58:00.323299, 140.485, 4143
17:58:00.323833, 140.4875, 4147
17:58:00.323872, 140.49, 4154
17:58:00.323892, 140.4925, 4108
17:58:00.323911, 140.495, 4184
17:58:00.332525, 140.4975, 4175
17:58:00.332571, 140.5, 4179
17:58:00.332586, 140.5025, 4163
17:58:00.332600, 140.505, 4184
17:58:00.359301, 140.5075, 4200
17:58:00.359397, 140.51, 4147
17:58:00.359434, 140.5125, 4212
17:58:00.359466, 140.515, 4198
17:58:00.360098, 140.5175, 4202
17:58:00.360143, 140.52, 4170
17:58:00.360172, 140.5225, 4185
17:58:00.360198, 140.525, 4185
17:58:00.360681, 140.5275, 4151
17:58:00.360717, 140.53, 4199
17:58:00.360745, 140.5325, 4213
17:58:00.360772, 140.535, 4199
17:58:00.360799, 140.5375, 4213
17:58:00.367510, 140.54, 4219
17:58:00.367537, 140.5425, 4228
17:58:00.367554, 140.545, 4138
17:58:00.367569, 140.5475, 4222
17:58:00.391320, 140.55, 4223
17:58:00.391383, 140.5525, 4198
17:58:00.391405, 140.555, 4208
17:58:00.391424, 140.5575, 4201
17:58:00.391761, 140.56, 4190
17:58:00.391783, 140.5625, 4145
17:58:00.391798, 140.565, 4212
17:58:00.391812, 140.5675, 4198
17:58:00.402993, 140.57, 4202
17:58:00.403031, 140.5725, 4169
17:58:00.403063, 140.575, 4168
17:58:00.403098, 140.5775, 4179
17:58:00.424334, 140.58, 4161
17:58:00.424402, 140.5825, 4195
17:58:00.424426, 140.585, 4193
17:58:00.424447, 140.5875, 4191
17:58:00.424802, 140.59, 4191
17:58:00.424841, 140.5925, 4195
17:58:00.424861, 140.595, 4197
17:58:00.424877, 140.5975, 4126
17:58:00.429259, 140.6, 4183
17:58:00.429345, 140.6025, 4171
17:58:00.429395, 140.605, 4167
17:58:00.429441, 140.6075, 4183
17:58:00.429486, 140.61, 4163
17:58:00.438081, 140.6125, 4171
17:58:00.438160, 140.615, 4092
17:58:00.438189, 140.6175, 4178
17:58:00.438241, 140.62, 4161
17:58:00.460526, 140.6225, 4132
17:58:00.460585, 140.625, 4148
17:58:00.460607, 140.6275, 4163
17:58:00.460627, 140.63, 4176
17:58:00.463927, 140.6325, 4149
17:58:00.464018, 140.635, 4190
17:58:00.464074, 140.6375, 4159
17:58:00.464126, 140.64, 4140
17:58:00.493867, 140.6425, 4157
17:58:00.493922, 140.645, 4171
17:58:00.493968, 140.6475, 4169
17:58:00.493991, 140.65, 4092
17:58:00.494286, 140.6525, 4168
17:58:00.494306, 140.655, 4167
17:58:00.494321, 140.6575, 4170
17:58:00.494335, 140.66, 4135
17:58:00.494586, 140.6625, 4143
17:58:00.494605, 140.665, 4146
17:58:00.494619, 140.6675, 4058
17:58:00.494633, 140.67, 4137
17:58:00.499103, 140.6725, 4126
17:58:00.499128, 140.675, 4122
17:58:00.499143, 140.6775, 4116
17:58:00.499157, 140.68, 4161
17:58:00.524051, 140.6825, 4151
17:58:00.524131, 140.685, 4073
17:58:00.524155, 140.6875, 4165
17:58:00.524175, 140.69, 4177
17:58:00.524195, 140.6925, 4165
17:58:00.524909, 140.695, 4170
17:58:00.524943, 140.6975, 4147
17:58:00.524958, 140.7, 4157
17:58:00.524973, 140.7025, 4093
17:58:00.534012, 140.705, 4181
17:58:00.534076, 140.7075, 4160
17:58:00.534115, 140.71, 4148
17:58:00.534152, 140.7125, 4165
17:58:00.557115, 140.715, 4159
17:58:00.557206, 140.7175, 4160
17:58:00.557232, 140.72, 4113
17:58:00.557253, 140.7225, 4170
17:58:00.557617, 140.725, 4182
17:58:00.557649, 140.7275, 4178
17:58:00.557665, 140.73, 4160
17:58:00.557680, 140.7325, 4186
17:58:00.569090, 140.735, 4175
17:58:00.569162, 140.7375, 4096
17:58:00.569205, 140.74, 4168
17:58:00.569246, 140.7425, 4157
17:58:00.592612, 140.745, 4157
17:58:00.592702, 140.7475, 4161
17:58:00.592728, 140.75, 4169
17:58:00.592748, 140.7525, 4197
17:58:00.593059, 140.755, 4134
17:58:00.593081, 140.7575, 4196
17:58:00.593096, 140.76, 4205
17:58:00.593111, 140.7625, 4181
17:58:00.595507, 140.765, 4161
17:58:00.595594, 140.7675, 4169
17:58:00.595643, 140.77, 4164
17:58:00.595689, 140.7725, 4114
17:58:00.603998, 140.775, 4204
17:58:00.604041, 140.7775, 4178
17:58:00.604098, 140.78, 4166
17:58:00.604121, 140.7825, 4181
17:58:00.604151, 140.785, 4190
17:58:00.626453, 140.7875, 4187
17:58:00.626521, 140.79, 4123
17:58:00.626546, 140.7925, 4194
17:58:00.626566, 140.795, 4184
17:58:00.630546, 140.7975, 4146
17:58:00.630643, 140.8, 4145
17:58:00.630703, 140.8025, 4131
17:58:00.630755, 140.805, 4136
17:58:00.640109, 140.8075, 4113
17:58:00.640193, 140.81, 4139
17:58:00.640217, 140.8125, 4138
17:58:00.640238, 140.815, 4152
17:58:00.660937, 140.8175, 4194
17:58:00.661015, 140.82, 4177
17:58:00.661048, 140.8225, 4185
17:58:00.661076, 140.825, 4109
17:58:00.661544, 140.8275, 4178
17:58:00.661576, 140.83, 4178
17:58:00.661598, 140.8325, 4171
17:58:00.661618, 140.835, 4148
17:58:00.665315, 140.8375, 4139
17:58:00.665382, 140.84, 4129
17:58:00.665422, 140.8425, 4044
17:58:00.665459, 140.845, 4165
17:58:00.675136, 140.8475, 4168
17:58:00.675212, 140.85, 4186
17:58:00.675244, 140.8525, 4196
17:58:00.675284, 140.855, 4206
17:58:00.694130, 140.8575, 4202
17:58:00.694232, 140.86, 4111
17:58:00.694271, 140.8625, 4160
17:58:00.694303, 140.865, 4170
17:58:00.700428, 140.8675, 4156
17:58:00.700517, 140.87, 4175
17:58:00.700559, 140.8725, 4148
17:58:00.700597, 140.875, 4166
17:58:00.724076, 140.8775, 4105
17:58:00.724140, 140.88, 4154
17:58:00.724163, 140.8825, 4149
17:58:00.724185, 140.885, 4164
17:58:00.724206, 140.8875, 4142
17:58:00.724655, 140.89, 4150
17:58:00.724685, 140.8925, 4161
17:58:00.724702, 140.895, 4108
17:58:00.724718, 140.8975, 4168
17:58:00.726141, 140.9, 4172
17:58:00.726170, 140.9025, 4162
17:58:00.726186, 140.905, 4173
17:58:00.726201, 140.9075, 4164
17:58:00.735608, 140.91, 4164
17:58:00.735695, 140.9125, 4115
17:58:00.735744, 140.915, 4186
17:58:00.735792, 140.9175, 4182
17:58:00.760480, 140.92, 4176
17:58:00.760550, 140.9225, 4175
17:58:00.760572, 140.925, 4179
17:58:00.760593, 140.9275, 4172
17:58:00.772772, 140.93, 4124
17:58:00.772825, 140.9325, 4156
17:58:00.772846, 140.935, 4154
17:58:00.772864, 140.9375, 4169
17:58:00.773833, 140.94, 4156
17:58:00.773875, 140.9425, 4168
17:58:00.773895, 140.945, 4165
17:58:00.773920, 140.9475, 4095
17:58:00.794122, 140.95, 4186
17:58:00.794181, 140.9525, 4193
17:58:00.794204, 140.955, 4162
17:58:00.794224, 140.9575, 4163
17:58:00.794572, 140.96, 4176
17:58:00.794594, 140.9625, 4195
17:58:00.794611, 140.965, 4112
17:58:00.794626, 140.9675, 4185
17:58:00.805680, 140.97, 4172
17:58:00.805733, 140.9725, 4172
17:58:00.805755, 140.975, 4176
17:58:00.805775, 140.9775, 4189
17:58:00.805820, 140.98, 4195
17:58:00.825665, 140.9825, 4170
17:58:00.825735, 140.985, 4188
17:58:00.825757, 140.9875, 4175
17:58:00.825789, 140.99, 4171
17:58:00.826143, 140.9925, 4161
17:58:00.826169, 140.995, 4176
17:58:00.826185, 140.9975, 4183
17:58:00.826200, 141.0, 4127
17:58:00.859947, 141.0025, 4173
17:58:00.860085, 141.005, 4149
17:58:00.860145, 141.0075, 4170
17:58:00.860196, 141.01, 4153
17:58:00.861037, 141.0125, 4170
17:58:00.861111, 141.015, 4174
17:58:00.861152, 141.0175, 4105
17:58:00.861189, 141.02, 4189
17:58:00.861871, 141.0225, 4172
17:58:00.861917, 141.025, 4199
17:58:00.861952, 141.0275, 4131
17:58:00.861985, 141.03, 4180
17:58:00.866813, 141.0325, 4176
17:58:00.866905, 141.035, 4109
17:58:00.866956, 141.0375, 4175
17:58:00.867002, 141.04, 4180
17:58:00.891411, 141.0425, 4167
17:58:00.891574, 141.045, 4176
17:58:00.891613, 141.0475, 4185
17:58:00.891632, 141.05, 4205
17:58:00.891648, 141.0525, 4129
17:58:00.891963, 141.055, 4192
17:58:00.891994, 141.0575, 4181
17:58:00.892009, 141.06, 4170
17:58:00.892023, 141.0625, 4177
17:58:00.892524, 141.065, 4169
17:58:00.892554, 141.0675, 4157
17:58:00.892569, 141.07, 4121
17:58:00.892583, 141.0725, 4182
17:58:00.901963, 141.075, 4184
17:58:00.902063, 141.0775, 4197
17:58:00.902123, 141.08, 4198
17:58:00.902175, 141.0825, 4203
17:58:00.925789, 141.085, 4186
17:58:00.925921, 141.0875, 4096
17:58:00.925953, 141.09, 4170
17:58:00.925993, 141.0925, 4170
17:58:00.927387, 141.095, 4149
17:58:00.927421, 141.0975, 4138
17:58:00.927437, 141.1, 4162
17:58:00.927452, 141.1025, 4146
17:58:00.936249, 141.105, 4111
17:58:00.936277, 141.1075, 4161
17:58:00.936293, 141.11, 4147
17:58:00.936308, 141.1125, 4152
17:58:00.958795, 141.115, 4145
17:58:00.958903, 141.1175, 4155
17:58:00.958985, 141.12, 4146
17:58:00.959033, 141.1225, 4098
17:58:00.959469, 141.125, 4173
17:58:00.959510, 141.1275, 4164
17:58:00.959532, 141.13, 4152
17:58:00.959551, 141.1325, 4167
17:58:00.962587, 141.135, 4175
17:58:00.962622, 141.1375, 4197
17:58:00.962643, 141.14, 4109
17:58:00.962663, 141.1425, 4158
17:58:00.962682, 141.145, 4138
17:58:00.993872, 141.1475, 4141
17:58:00.993989, 141.15, 4165
17:58:00.994029, 141.1525, 4171
17:58:00.994061, 141.155, 4156
17:58:00.994630, 141.1575, 4136
17:58:00.994672, 141.16, 4174
17:58:00.994696, 141.1625, 4160
17:58:00.994717, 141.165, 4167
17:58:00.997717, 141.1675, 4129
17:58:00.997771, 141.17, 4146
17:58:00.997811, 141.1725, 4095
17:58:00.997836, 141.175, 4033
17:58:01.007237, 141.1775, 4100
17:58:01.007322, 141.18, 4056
17:58:01.007348, 141.1825, 4083
17:58:01.007367, 141.185, 4078
17:58:01.027492, 141.1875, 4102
17:58:01.027661, 141.19, 4117
17:58:01.027700, 141.1925, 4061
17:58:01.027733, 141.195, 4146
17:58:01.028136, 141.1975, 4149
17:58:01.028165, 141.2, 4148
17:58:01.028186, 141.2025, 4128
17:58:01.028206, 141.205, 4133
17:58:01.042936, 141.2075, 4120
17:58:01.043017, 141.21, 4074
17:58:01.043046, 141.2125, 4159
17:58:01.043082, 141.215, 4144
17:58:01.070921, 141.2175, 4152
17:58:01.070979, 141.22, 4142
17:58:01.071003, 141.2225, 4164
17:58:01.071070, 141.225, 4155
17:58:01.071374, 141.2275, 4079
17:58:01.071404, 141.23, 4170
17:58:01.071419, 141.2325, 4171
17:58:01.071433, 141.235, 4167
17:58:01.071446, 141.2375, 4176
17:58:01.071688, 141.24, 4173
17:58:01.071706, 141.2425, 4175
17:58:01.071720, 141.245, 4115
17:58:01.071733, 141.2475, 4179
17:58:01.100309, 141.25, 4160
17:58:01.100368, 141.2525, 4176
17:58:01.100405, 141.255, 4169
17:58:01.100423, 141.2575, 4180
17:58:01.100796, 141.26, 4148
17:58:01.100821, 141.2625, 4103
17:58:01.100835, 141.265, 4192
17:58:01.100848, 141.2675, 4155
17:58:01.102509, 141.27, 4191
17:58:01.102529, 141.2725, 4184
17:58:01.102543, 141.275, 4224
17:58:01.102557, 141.2775, 4273
17:58:01.131799, 141.28, 4314
17:58:01.131860, 141.2825, 4395
17:58:01.131951, 141.285, 4417
17:58:01.131981, 141.2875, 4448
17:58:01.132275, 141.29, 4468
17:58:01.132297, 141.2925, 4402
17:58:01.132313, 141.295, 4270
17:58:01.132329, 141.2975, 3981
17:58:01.132660, 141.3, 3787
17:58:01.132682, 141.3025, 3471
17:58:01.132697, 141.305, 3130
17:58:01.132713, 141.3075, 2742
17:58:01.137674, 141.31, 2243
17:58:01.137720, 141.3125, 1919
17:58:01.137747, 141.315, 1747
17:58:01.137772, 141.3175, 1908
17:58:01.159861, 141.32, 2321
17:58:01.159973, 141.3225, 3068
17:58:01.160008, 141.325, 3867
17:58:01.160037, 141.3275, 4450
17:58:01.160066, 141.33, 4773
17:58:01.163912, 141.3325, 4804
17:58:01.163977, 141.335, 4764
17:58:01.164010, 141.3375, 4642
17:58:01.164040, 141.34, 4571
17:58:01.172486, 141.3425, 4529
17:58:01.172511, 141.345, 4532
17:58:01.172527, 141.3475, 4517
17:58:01.172541, 141.35, 4425
17:58:01.194807, 141.3525, 4498
17:58:01.194932, 141.355, 4500
17:58:01.195031, 141.3575, 4516
17:58:01.195108, 141.36, 4508
17:58:01.196316, 141.3625, 4505
17:58:01.196396, 141.365, 4515
17:58:01.196462, 141.3675, 4442
17:58:01.196527, 141.37, 4525
17:58:01.199356, 141.3725, 4498
17:58:01.199436, 141.375, 4463
17:58:01.199499, 141.3775, 4467
17:58:01.199558, 141.38, 4471
17:58:01.226114, 141.3825, 4434
17:58:01.226225, 141.385, 4349
17:58:01.226259, 141.3875, 4398
17:58:01.226305, 141.39, 4394
17:58:01.226334, 141.3925, 4393
17:58:01.226885, 141.395, 4390
17:58:01.226934, 141.3975, 4390
17:58:01.226956, 141.4, 4386
17:58:01.226976, 141.4025, 4326
17:58:01.233944, 141.405, 4379
17:58:01.234004, 141.4075, 4369
17:58:01.234040, 141.41, 4370
17:58:01.234065, 141.4125, 4337
17:58:01.243206, 141.415, 4327
17:58:01.243276, 141.4175, 4318
17:58:01.243303, 141.42, 4214
17:58:01.243327, 141.4225, 4286
17:58:01.259788, 141.425, 4305
17:58:01.259883, 141.4275, 4290
17:58:01.259912, 141.43, 4296
17:58:01.259935, 141.4325, 4284
17:58:01.269017, 141.435, 4267
17:58:01.269081, 141.4375, 4197
17:58:01.269109, 141.44, 4278
17:58:01.269134, 141.4425, 4270
17:58:01.299063, 141.445, 4257
17:58:01.299179, 141.4475, 4247
17:58:01.299231, 141.45, 4226
17:58:01.299353, 141.4525, 4222
17:58:01.300107, 141.455, 4156
17:58:01.300162, 141.4575, 4247
17:58:01.300199, 141.46, 4213
17:58:01.300234, 141.4625, 4204
17:58:01.300267, 141.465, 4224
17:58:01.300878, 141.4675, 4217
17:58:01.300923, 141.47, 4203
17:58:01.300959, 141.4725, 4142
17:58:01.300993, 141.475, 4214
17:58:01.303655, 141.4775, 4218
17:58:01.303680, 141.48, 4203
17:58:01.303697, 141.4825, 4188
17:58:01.303713, 141.485, 4185
17:58:01.337480, 141.4875, 4214
17:58:01.337583, 141.49, 4163
17:58:01.337670, 141.4925, 4236
17:58:01.337743, 141.495, 4236
17:58:01.338939, 141.4975, 4239
17:58:01.339031, 141.5, 4239
17:58:01.339047, 141.5025, 4215
17:58:01.339062, 141.505, 4188
17:58:01.339327, 141.5075, 4142
17:58:01.339347, 141.51, 4200
17:58:01.339362, 141.5125, 4211
17:58:01.339376, 141.515, 4235
17:58:01.360462, 141.5175, 4230
17:58:01.360600, 141.52, 4225
17:58:01.360657, 141.5225, 4239
17:58:01.360709, 141.525, 4151
17:58:01.361501, 141.5275, 4186
17:58:01.361573, 141.53, 4200
17:58:01.361617, 141.5325, 4200
17:58:01.361659, 141.535, 4207
17:58:01.373788, 141.5375, 4192
17:58:01.373846, 141.54, 4174
17:58:01.373873, 141.5425, 4111
17:58:01.373897, 141.545, 4168
17:58:01.373921, 141.5475, 4182
17:58:01.394066, 141.55, 4185
17:58:01.394149, 141.5525, 4200
17:58:01.394188, 141.555, 4211
17:58:01.394224, 141.5575, 4188
17:58:01.394815, 141.56, 4102
17:58:01.394891, 141.5625, 4153
17:58:01.394924, 141.565, 4158
17:58:01.394954, 141.5675, 4147
17:58:01.400207, 141.57, 4152
17:58:01.400264, 141.5725, 4168
17:58:01.400290, 141.575, 4171
17:58:01.400316, 141.5775, 4100
17:58:01.427975, 141.58, 4160
17:58:01.428099, 141.5825, 4154
17:58:01.428153, 141.585, 4142
17:58:01.428295, 141.5875, 4138
17:58:01.429233, 141.59, 4148
17:58:01.429323, 141.5925, 4147
17:58:01.429365, 141.595, 4092
17:58:01.429408, 141.5975, 4142
17:58:01.430044, 141.6, 4110
17:58:01.430098, 141.6025, 4116
17:58:01.430140, 141.605, 4095
17:58:01.430184, 141.6075, 4131
17:58:01.461562, 141.61, 4129
17:58:01.461695, 141.6125, 4081
17:58:01.461740, 141.615, 4142
17:58:01.461850, 141.6175, 4127
17:58:01.462253, 141.62, 4129
17:58:01.462298, 141.6225, 4136
17:58:01.462317, 141.625, 4163
17:58:01.462333, 141.6275, 4154
17:58:01.462613, 141.63, 4091
17:58:01.462644, 141.6325, 4149
17:58:01.462661, 141.635, 4172
17:58:01.462677, 141.6375, 4187
17:58:01.470069, 141.64, 4169
17:58:01.470122, 141.6425, 4184
17:58:01.470151, 141.645, 4195
17:58:01.470177, 141.6475, 4139
17:58:01.470203, 141.65, 4196
17:58:01.494712, 141.6525, 4213
17:58:01.494815, 141.655, 4217
17:58:01.494926, 141.6575, 4218
17:58:01.494977, 141.66, 4224
17:58:01.495715, 141.6625, 4229
17:58:01.495770, 141.665, 4157
17:58:01.495813, 141.6675, 4235
17:58:01.495840, 141.67, 4231
17:58:01.505471, 141.6725, 4242
17:58:01.505554, 141.675, 4228
17:58:01.505595, 141.6775, 4213
17:58:01.505631, 141.68, 4205
17:58:01.527954, 141.6825, 4178
17:58:01.528043, 141.685, 4218
17:58:01.528094, 141.6875, 4217
17:58:01.528128, 141.69, 4221
17:58:01.528705, 141.6925, 4214
17:58:01.528746, 141.695, 4249
17:58:01.528769, 141.6975, 4245
17:58:01.528790, 141.7, 4159
17:58:01.531326, 141.7025, 4226
17:58:01.531368, 141.705, 4210
17:58:01.531389, 141.7075, 4210
17:58:01.531407, 141.71, 4207
17:58:01.540505, 141.7125, 4231
17:58:01.540585, 141.715, 4231
17:58:01.540639, 141.7175, 4144
17:58:01.540691, 141.72, 4215
17:58:01.564167, 141.7225, 4208
17:58:01.564235, 141.725, 4190
17:58:01.564259, 141.7275, 4183
17:58:01.564279, 141.73, 4180
17:58:01.564309, 141.7325, 4170
17:58:01.578679, 141.735, 4152
17:58:01.578779, 141.7375, 4196
17:58:01.578813, 141.74, 4196
17:58:01.578878, 141.7425, 4177
17:58:01.598365, 141.745, 4180
17:58:01.598452, 141.7475, 4177
17:58:01.598485, 141.75, 4166
17:58:01.598512, 141.7525, 4131
17:58:01.599081, 141.755, 4203
17:58:01.599119, 141.7575, 4165
17:58:01.599144, 141.76, 4171
17:58:01.599168, 141.7625, 4154
17:58:01.599593, 141.765, 4191
17:58:01.599624, 141.7675, 4184
17:58:01.599648, 141.77, 4099
17:58:01.599672, 141.7725, 4180
17:58:01.601438, 141.775, 4178
17:58:01.601473, 141.7775, 4167
17:58:01.601532, 141.78, 4155
17:58:01.601559, 141.7825, 4171
17:58:01.634993, 141.785, 4156
17:58:01.635118, 141.7875, 4087
17:58:01.635214, 141.79, 4168
17:58:01.635266, 141.7925, 4153
17:58:01.636042, 141.795, 4149
17:58:01.636094, 141.7975, 4173
17:58:01.636130, 141.8, 4161
17:58:01.636165, 141.8025, 4154
17:58:01.636762, 141.805, 4064
17:58:01.636807, 141.8075, 4145
17:58:01.636842, 141.81, 4153
17:58:01.636875, 141.8125, 4132
17:58:01.636908, 141.815, 4145
17:58:01.645055, 141.8175, 4150
17:58:01.645743, 141.82, 4155
17:58:01.645782, 141.8225, 4067
17:58:01.645803, 141.825, 4145
17:58:01.662866, 141.8275, 4154
17:58:01.662965, 141.83, 4168
17:58:01.662997, 141.8325, 4155
17:58:01.663070, 141.835, 4176
17:58:01.663566, 141.8375, 4165
17:58:01.663609, 141.84, 4088
17:58:01.663631, 141.8425, 4164
17:58:01.663651, 141.845, 4171
17:58:01.695674, 141.8475, 4175
17:58:01.695730, 141.85, 4181
17:58:01.695753, 141.8525, 4153
17:58:01.695772, 141.855, 4160
17:58:01.696154, 141.8575, 4136
17:58:01.696182, 141.86, 4188
17:58:01.696197, 141.8625, 4194
17:58:01.696212, 141.865, 4170
17:58:01.697594, 141.8675, 4163
17:58:01.697633, 141.87, 4176
17:58:01.697649, 141.8725, 4172
17:58:01.697665, 141.875, 4108
17:58:01.706969, 141.8775, 4156
17:58:01.707067, 141.88, 4144
17:58:01.707122, 141.8825, 4155
17:58:01.707170, 141.885, 4148
17:58:01.729783, 141.8875, 4165
17:58:01.729882, 141.89, 4160
17:58:01.729912, 141.8925, 4081
17:58:01.729934, 141.895, 4164
17:58:01.730378, 141.8975, 4170
17:58:01.730418, 141.9, 4174
17:58:01.730434, 141.9025, 4174
17:58:01.730450, 141.905, 4151
17:58:01.741516, 141.9075, 4148
17:58:01.741579, 141.91, 4112
17:58:01.741615, 141.9125, 4189
17:58:01.741645, 141.915, 4188
17:58:01.741674, 141.9175, 4183
17:58:01.767083, 141.92, 4164
17:58:01.767170, 141.9225, 4157
17:58:01.767246, 141.925, 4178
17:58:01.767287, 141.9275, 4088
17:58:01.767909, 141.93, 4177
17:58:01.767944, 141.9325, 4183
17:58:01.767967, 141.935, 4193
17:58:01.767988, 141.9375, 4194
17:58:01.768370, 141.94, 4210
17:58:01.768398, 141.9425, 4167
17:58:01.768420, 141.945, 4101
17:58:01.768441, 141.9475, 4132
17:58:01.776741, 141.95, 4130
17:58:01.776786, 141.9525, 4133
17:58:01.776862, 141.955, 4136
17:58:01.776899, 141.9575, 4143
17:58:01.797887, 141.96, 4156
17:58:01.798003, 141.9625, 4090
17:58:01.798042, 141.965, 4166
17:58:01.798094, 141.9675, 4156
17:58:01.802624, 141.97, 4168
17:58:01.802677, 141.9725, 4168
17:58:01.802702, 141.975, 4153
17:58:01.802724, 141.9775, 4155
17:58:01.811891, 141.98, 4077
17:58:01.811942, 141.9825, 4185
17:58:01.811963, 141.985, 4175
17:58:01.811982, 141.9875, 4179
17:58:01.812000, 141.99, 4148
17:58:01.829476, 141.9925, 4162
17:58:01.829574, 141.995, 4165
17:58:01.829599, 141.9975, 4103
17:58:01.829619, 142.0, 4166
17:58:01.829971, 142.0025, 4148
17:58:01.830000, 142.005, 4149
17:58:01.830016, 142.0075, 4146
17:58:01.830030, 142.01, 4166
17:58:01.837946, 142.0125, 4161
17:58:01.838024, 142.015, 4086
17:58:01.838064, 142.0175, 4176
17:58:01.838102, 142.02, 4194
17:58:01.863122, 142.0225, 4163
17:58:01.863237, 142.025, 4165
17:58:01.863270, 142.0275, 4184
17:58:01.863312, 142.03, 4169
17:58:01.863823, 142.0325, 4119
17:58:01.863870, 142.035, 4157
17:58:01.863892, 142.0375, 4164
17:58:01.863912, 142.04, 4171
17:58:01.872844, 142.0425, 4170
17:58:01.872916, 142.045, 4161
17:58:01.872954, 142.0475, 4174
17:58:01.872988, 142.05, 4125
17:58:01.896681, 142.0525, 4200
17:58:01.896805, 142.055, 4197
17:58:01.896842, 142.0575, 4184
17:58:01.896873, 142.06, 4151
17:58:01.896953, 142.0625, 4183
17:58:01.897500, 142.065, 4186
17:58:01.897561, 142.0675, 4103
17:58:01.897584, 142.07, 4173
17:58:01.897607, 142.0725, 4162
17:58:01.907366, 142.075, 4167
17:58:01.907402, 142.0775, 4178
17:58:01.907417, 142.08, 4198
17:58:01.907431, 142.0825, 4175
17:58:01.931437, 142.085, 4135
17:58:01.931562, 142.0875, 4177
17:58:01.931596, 142.09, 4170
17:58:01.931626, 142.0925, 4158
17:58:01.932195, 142.095, 4173
17:58:01.932233, 142.0975, 4200
17:58:01.932255, 142.1, 4201
17:58:01.932276, 142.1025, 4137
17:58:01.933826, 142.105, 4204
17:58:01.933888, 142.1075, 4189
17:58:01.933911, 142.11, 4183
17:58:01.933930, 142.1125, 4175
17:58:01.942380, 142.115, 4177
17:58:01.942404, 142.1175, 4161
17:58:01.942419, 142.12, 4079
17:58:01.942432, 142.1225, 4143
17:58:01.967916, 142.125, 4172
17:58:01.968003, 142.1275, 4167
17:58:01.968037, 142.13, 4171
17:58:01.968084, 142.1325, 4180
17:58:01.968891, 142.135, 4176
17:58:01.968928, 142.1375, 4100
17:58:01.968952, 142.14, 4207
17:58:01.968974, 142.1425, 4192
17:58:01.977728, 142.145, 4138
17:58:01.977787, 142.1475, 4152
17:58:01.977811, 142.15, 4161
17:58:01.977831, 142.1525, 4162
17:58:01.977852, 142.155, 4093
17:58:01.998457, 142.1575, 4178
17:58:01.998583, 142.16, 4178
17:58:01.998624, 142.1625, 4171
17:58:01.998654, 142.165, 4150
17:58:01.999112, 142.1675, 4153
17:58:01.999141, 142.17, 4180
17:58:01.999156, 142.1725, 4123
17:58:01.999170, 142.175, 4171
17:58:02.003607, 142.1775, 4131
17:58:02.003635, 142.18, 4164
17:58:02.003650, 142.1825, 4141
17:58:02.003663, 142.185, 4169
17:58:02.013188, 142.1875, 4170
17:58:02.013225, 142.19, 4096
17:58:02.013246, 142.1925, 4155
17:58:02.013291, 142.195, 4156
17:58:02.034439, 142.1975, 4168
17:58:02.034499, 142.2, 4188
17:58:02.034522, 142.2025, 4209
17:58:02.034542, 142.205, 4199
17:58:02.038921, 142.2075, 4140
17:58:02.038978, 142.21, 4193
17:58:02.039010, 142.2125, 4179
17:58:02.039039, 142.215, 4189
17:58:02.063746, 142.2175, 4208
17:58:02.063878, 142.22, 4187
17:58:02.063968, 142.2225, 4191
17:58:02.064013, 142.225, 4123
17:58:02.064604, 142.2275, 4203
17:58:02.064668, 142.23, 4197
17:58:02.064696, 142.2325, 4188
17:58:02.064719, 142.235, 4190
17:58:02.064743, 142.2375, 4181
17:58:02.065142, 142.24, 4189
17:58:02.065182, 142.2425, 4129
17:58:02.065205, 142.245, 4181
17:58:02.065227, 142.2475, 4168
17:58:02.101747, 142.25, 4151
17:58:02.101950, 142.2525, 4122
17:58:02.102003, 142.255, 4119
17:58:02.102042, 142.2575, 4116
17:58:02.102693, 142.26, 4084
17:58:02.102736, 142.2625, 4146
17:58:02.102766, 142.265, 4151
17:58:02.102794, 142.2675, 4140
17:58:02.103415, 142.27, 4147
17:58:02.103463, 142.2725, 4146
17:58:02.103499, 142.275, 4155
17:58:02.103533, 142.2775, 4055
17:58:02.108733, 142.28, 4190
17:58:02.108757, 142.2825, 4185
17:58:02.108773, 142.285, 4173
17:58:02.108787, 142.2875, 4160
17:58:02.131065, 142.29, 4198
17:58:02.131211, 142.2925, 4174
17:58:02.131248, 142.295, 4101
17:58:02.131280, 142.2975, 4198
17:58:02.134984, 142.3, 4202
17:58:02.135060, 142.3025, 4199
17:58:02.135097, 142.305, 4195
17:58:02.135128, 142.3075, 4223
17:58:02.135160, 142.31, 4214
17:58:02.143767, 142.3125, 4165
17:58:02.143790, 142.315, 4212
17:58:02.143805, 142.3175, 4200
17:58:02.143820, 142.32, 4160
17:58:02.168363, 142.3225, 4168
17:58:02.168431, 142.325, 4172
17:58:02.168461, 142.3275, 4168
17:58:02.168492, 142.33, 4100
17:58:02.168885, 142.3325, 4175
17:58:02.168909, 142.335, 4187
17:58:02.168926, 142.3375, 4171
17:58:02.168941, 142.34, 4191
17:58:02.169893, 142.3425, 4193
17:58:02.169913, 142.345, 4183
17:58:02.169928, 142.3475, 4136
17:58:02.169942, 142.35, 4220
17:58:02.180457, 142.3525, 4263
17:58:02.180515, 142.355, 4304
17:58:02.180552, 142.3575, 4348
17:58:02.180615, 142.36, 4388
17:58:02.205271, 142.3625, 4442
17:58:02.205360, 142.365, 4365
17:58:02.205406, 142.3675, 4359
17:58:02.205478, 142.37, 4192
17:58:02.206084, 142.3725, 4000
17:58:02.206126, 142.375, 3793
17:58:02.206154, 142.3775, 3512
17:58:02.206180, 142.38, 3248
17:58:02.206206, 142.3825, 2770
17:58:02.214794, 142.385, 2397
17:58:02.215945, 142.3875, 2111
17:58:02.216002, 142.39, 1940
17:58:02.216111, 142.3925, 1981
17:58:02.236149, 142.395, 2321
17:58:02.236244, 142.3975, 2899
17:58:02.236270, 142.4, 3672
17:58:02.236292, 142.4025, 4556
17:58:02.236625, 142.405, 4913
17:58:02.236650, 142.4075, 5018
17:58:02.236667, 142.41, 5017
17:58:02.236682, 142.4125, 4874
17:58:02.249066, 142.415, 4755
17:58:02.249129, 142.4175, 4543
17:58:02.249158, 142.42, 4614
17:58:02.249183, 142.4225, 4566
17:58:02.270222, 142.425, 4500
17:58:02.270303, 142.4275, 4486
17:58:02.270329, 142.43, 4475
17:58:02.270350, 142.4325, 4466
17:58:02.270685, 142.435, 4398
17:58:02.270736, 142.4375, 4476
17:58:02.270754, 142.44, 4461
17:58:02.270770, 142.4425, 4432
17:58:02.270786, 142.445, 4443
17:58:02.274896, 142.4475, 4456
17:58:02.274926, 142.45, 4465
17:58:02.274942, 142.4525, 4369
17:58:02.274958, 142.455, 4396
17:58:02.302684, 142.4575, 4390
17:58:02.302731, 142.46, 4363
17:58:02.302753, 142.4625, 4358
17:58:02.302782, 142.465, 4363
17:58:02.303192, 142.4675, 4356
17:58:02.303215, 142.47, 4340
17:58:02.303231, 142.4725, 4351
17:58:02.303245, 142.475, 4348
17:58:02.310201, 142.4775, 4353
17:58:02.310308, 142.48, 4317
17:58:02.310364, 142.4825, 4338
17:58:02.310414, 142.485, 4329
17:58:02.343454, 142.4875, 4235
17:58:02.343524, 142.49, 4313
17:58:02.343561, 142.4925, 4286
17:58:02.343596, 142.495, 4302
17:58:02.344153, 142.4975, 4297
17:58:02.344184, 142.5, 4293
17:58:02.344200, 142.5025, 4298
17:58:02.344215, 142.505, 4211
17:58:02.344483, 142.5075, 4293
17:58:02.344503, 142.51, 4291
17:58:02.344517, 142.5125, 4267
17:58:02.344530, 142.515, 4253
17:58:02.344872, 142.5175, 4273
17:58:02.344904, 142.52, 4254
17:58:02.344919, 142.5225, 4160
17:58:02.344932, 142.525, 4234
17:58:02.365820, 142.5275, 4208
17:58:02.365906, 142.53, 4195
17:58:02.365931, 142.5325, 4181
17:58:02.365952, 142.535, 4213
17:58:02.365971, 142.5375, 4191
17:58:02.371257, 142.54, 4158
17:58:02.371297, 142.5425, 4180
17:58:02.371312, 142.545, 4182
17:58:02.371327, 142.5475, 4203
17:58:02.381070, 142.55, 4191
17:58:02.381114, 142.5525, 4181
17:58:02.381134, 142.555, 4184
17:58:02.381152, 142.5575, 4102
17:58:02.405392, 142.56, 4184
17:58:02.405520, 142.5625, 4195
17:58:02.405552, 142.565, 4195
17:58:02.405576, 142.5675, 4183
17:58:02.405931, 142.57, 4201
17:58:02.405958, 142.5725, 4192
17:58:02.405975, 142.575, 4112
17:58:02.405990, 142.5775, 4176
17:58:02.406258, 142.58, 4173
17:58:02.406279, 142.5825, 4155
17:58:02.406294, 142.585, 4155
17:58:02.406309, 142.5875, 4163
17:58:02.433396, 142.59, 4154
17:58:02.433509, 142.5925, 4100
17:58:02.433542, 142.595, 4151
17:58:02.433571, 142.5975, 4137
17:58:02.434099, 142.6, 4135
17:58:02.434144, 142.6025, 4141
17:58:02.434166, 142.605, 4118
17:58:02.434185, 142.6075, 4171
17:58:02.441590, 142.61, 4077
17:58:02.441649, 142.6125, 4151
17:58:02.441672, 142.615, 4156
17:58:02.441691, 142.6175, 4154
17:58:02.441710, 142.62, 4129
17:58:02.465956, 142.6225, 4144
17:58:02.466158, 142.625, 4155
17:58:02.466208, 142.6275, 4088
17:58:02.466270, 142.63, 4164
17:58:02.466731, 142.6325, 4165
17:58:02.466777, 142.635, 4178
17:58:02.466807, 142.6375, 4161
17:58:02.466834, 142.64, 4153
17:58:02.467734, 142.6425, 4153
17:58:02.467788, 142.645, 4070
17:58:02.467812, 142.6475, 4166
17:58:02.467834, 142.65, 4144
17:58:02.502032, 142.6525, 4142
17:58:02.502100, 142.655, 4139
17:58:02.502127, 142.6575, 4153
17:58:02.502149, 142.66, 4146
17:58:02.502513, 142.6625, 4119
17:58:02.502541, 142.665, 4149
17:58:02.502557, 142.6675, 4125
17:58:02.502572, 142.67, 4111
17:58:02.502832, 142.6725, 4112
17:58:02.502883, 142.675, 4140
17:58:02.502909, 142.6775, 4103
17:58:02.502931, 142.68, 4022
17:58:02.511884, 142.6825, 4115
17:58:02.511971, 142.685, 4112
17:58:02.512024, 142.6875, 4095
17:58:02.512075, 142.69, 4106
17:58:02.536265, 142.6925, 4111
17:58:02.536363, 142.695, 4116
17:58:02.536390, 142.6975, 4062
17:58:02.536411, 142.7, 4158
17:58:02.537512, 142.7025, 4166
17:58:02.537541, 142.705, 4169
17:58:02.537558, 142.7075, 4171
17:58:02.537573, 142.71, 4181
17:58:02.537588, 142.7125, 4200
17:58:02.546581, 142.715, 4137
17:58:02.546637, 142.7175, 4237
17:58:02.546673, 142.72, 4226
17:58:02.546707, 142.7225, 4214
17:58:02.572767, 142.725, 4228
17:58:02.572849, 142.7275, 4216
17:58:02.572875, 142.73, 4239
17:58:02.572908, 142.7325, 4195
17:58:02.573218, 142.735, 4248
17:58:02.573242, 142.7375, 4256
17:58:02.573258, 142.74, 4249
17:58:02.573273, 142.7425, 4234
17:58:02.573542, 142.745, 4241
17:58:02.573562, 142.7475, 4235
17:58:02.573577, 142.75, 4185
17:58:02.573592, 142.7525, 4272
17:58:02.582553, 142.755, 4259
17:58:02.582615, 142.7575, 4242
17:58:02.582639, 142.76, 4241
17:58:02.582659, 142.7625, 4250
17:58:02.601666, 142.765, 4232
17:58:02.601767, 142.7675, 4152
17:58:02.601806, 142.77, 4245
17:58:02.601838, 142.7725, 4244
17:58:02.607704, 142.775, 4225
17:58:02.607754, 142.7775, 4226
17:58:02.607783, 142.78, 4217
17:58:02.607808, 142.7825, 4187
17:58:02.607834, 142.785, 4124
17:58:02.617047, 142.7875, 4212
17:58:02.617133, 142.79, 4179
17:58:02.617157, 142.7925, 4194
17:58:02.617176, 142.795, 4180
17:58:02.633585, 142.7975, 4184
17:58:02.633687, 142.8, 4193
17:58:02.633715, 142.8025, 4116
17:58:02.633734, 142.805, 4177
17:58:02.634124, 142.8075, 4187
17:58:02.634156, 142.81, 4181
17:58:02.634172, 142.8125, 4183
17:58:02.634188, 142.815, 4186
17:58:02.667755, 142.8175, 4186
17:58:02.667855, 142.82, 4097
17:58:02.667882, 142.8225, 4186
17:58:02.667938, 142.825, 4172
17:58:02.668294, 142.8275, 4154
17:58:02.668334, 142.83, 4177
17:58:02.668367, 142.8325, 4184
17:58:02.668391, 142.835, 4174
17:58:02.668703, 142.8375, 4099
17:58:02.668744, 142.84, 4174
17:58:02.668763, 142.8425, 4175
17:58:02.668780, 142.845, 4170
17:58:02.678175, 142.8475, 4171
17:58:02.678271, 142.85, 4217
17:58:02.678328, 142.8525, 4190
17:58:02.678379, 142.855, 4115
17:58:02.712149, 142.8575, 4172
17:58:02.712220, 142.86, 4170
17:58:02.712242, 142.8625, 4183
17:58:02.712331, 142.865, 4174
17:58:02.712644, 142.8675, 4173
17:58:02.712680, 142.87, 4181
17:58:02.712696, 142.8725, 4122
17:58:02.712710, 142.875, 4201
17:58:02.712959, 142.8775, 4211
17:58:02.712982, 142.88, 4193
17:58:02.712996, 142.8825, 4186
17:58:02.713010, 142.885, 4183
17:58:02.739251, 142.8875, 4173
17:58:02.739327, 142.89, 4130
17:58:02.739353, 142.8925, 4222
17:58:02.739374, 142.895, 4201
17:58:02.739408, 142.8975, 4195
17:58:02.739753, 142.9, 4197
17:58:02.739779, 142.9025, 4203
17:58:02.739796, 142.905, 4186
17:58:02.739812, 142.9075, 4105
17:58:02.740140, 142.91, 4188
17:58:02.740161, 142.9125, 4191
17:58:02.740177, 142.915, 4183
17:58:02.740193, 142.9175, 4179
17:58:02.747527, 142.92, 4173
17:58:02.747574, 142.9225, 4175
17:58:02.747591, 142.925, 4119
17:58:02.747608, 142.9275, 4208
17:58:02.777276, 142.93, 4195
17:58:02.777337, 142.9325, 4196
17:58:02.777358, 142.935, 4201
17:58:02.777395, 142.9375, 4199
17:58:02.801456, 142.94, 4183
17:58:02.801537, 142.9425, 4130
17:58:02.801559, 142.945, 4208
17:58:02.801671, 142.9475, 4165
17:58:02.802089, 142.95, 4162
17:58:02.802126, 142.9525, 4162
17:58:02.802150, 142.955, 4182
17:58:02.802172, 142.9575, 4163
17:58:02.802564, 142.96, 4093
17:58:02.802616, 142.9625, 4207
17:58:02.802640, 142.965, 4193
17:58:02.802663, 142.9675, 4199
17:58:02.802686, 142.97, 4179
17:58:02.811099, 142.9725, 4202
17:58:02.811151, 142.975, 4189
17:58:02.811171, 142.9775, 4072
17:58:02.811191, 142.98, 4169
17:58:02.812170, 142.9825, 4176
17:58:02.812195, 142.985, 4156
17:58:02.812214, 142.9875, 4154
17:58:02.812232, 142.99, 4163
17:58:02.817816, 142.9925, 4157
17:58:02.817867, 142.995, 4047
17:58:02.817890, 142.9975, 4159
17:58:02.817941, 143.0, 4153
17:58:02.837005, 143.0025, 4163
17:58:02.837098, 143.005, 4156
17:58:02.837154, 143.0075, 4163
17:58:02.837211, 143.01, 4157
17:58:02.843787, 143.0125, 4124
17:58:02.843840, 143.015, 4164
17:58:02.843868, 143.0175, 4150
17:58:02.843893, 143.02, 4141
17:58:02.867839, 143.0225, 4144
17:58:02.867945, 143.025, 4176
17:58:02.867981, 143.0275, 4120
17:58:02.868012, 143.03, 4075
17:58:02.868561, 143.0325, 4177
17:58:02.868609, 143.035, 4162
17:58:02.868634, 143.0375, 4161
17:58:02.868657, 143.04, 4140
17:58:02.870038, 143.0425, 4160
17:58:02.870086, 143.045, 4146
17:58:02.870109, 143.0475, 4089
17:58:02.870130, 143.05, 4163
17:58:02.902193, 143.0525, 4153
17:58:02.902293, 143.055, 4135
17:58:02.902329, 143.0575, 4141
17:58:02.902357, 143.06, 4146
17:58:02.902480, 143.0625, 4147
17:58:02.903037, 143.065, 4106
17:58:02.903082, 143.0675, 4119
17:58:02.903106, 143.07, 4156
17:58:02.903128, 143.0725, 4174
17:58:02.905125, 143.075, 4154
17:58:02.905167, 143.0775, 4158
17:58:02.905190, 143.08, 4167
17:58:02.905212, 143.0825, 4086
17:58:02.934962, 143.085, 4185
17:58:02.935098, 143.0875, 4159
17:58:02.935142, 143.09, 4145
17:58:02.935298, 143.0925, 4147
17:58:02.935825, 143.095, 4149
17:58:02.935873, 143.0975, 4127
17:58:02.935898, 143.1, 4079
17:58:02.935922, 143.1025, 4135
17:58:02.936354, 143.105, 4143
17:58:02.936412, 143.1075, 4135
17:58:02.936435, 143.11, 4145
17:58:02.936458, 143.1125, 4172
17:58:02.948652, 143.115, 4152
17:58:02.948687, 143.1175, 4072
17:58:02.948701, 143.12, 4159
17:58:02.948724, 143.1225, 4151
17:58:02.970118, 143.125, 4153
17:58:02.970242, 143.1275, 4153
17:58:02.970275, 143.13, 4175
17:58:02.970305, 143.1325, 4139
17:58:02.970939, 143.135, 4085
17:58:02.970979, 143.1375, 4174
17:58:02.971001, 143.14, 4166
17:58:02.971035, 143.1425, 4150
17:58:02.971057, 143.145, 4141
17:58:02.975702, 143.1475, 4162
17:58:02.975796, 143.15, 4154
17:58:02.975867, 143.1525, 4090
17:58:02.975933, 143.155, 4171
17:58:02.984927, 143.1575, 4140
17:58:02.985002, 143.16, 4139
17:58:02.985024, 143.1625, 4142
17:58:02.985042, 143.165, 4169
17:58:03.003814, 143.1675, 4160
17:58:03.003930, 143.17, 4078
17:58:03.003956, 143.1725, 4189
17:58:03.003976, 143.175, 4184
17:58:03.010295, 143.1775, 4185
17:58:03.010353, 143.18, 4181
17:58:03.010385, 143.1825, 4190
17:58:03.010415, 143.185, 4185
17:58:03.020767, 143.1875, 4162
17:58:03.020840, 143.19, 4166
17:58:03.020871, 143.1925, 4165
17:58:03.020897, 143.195, 4168
17:58:03.051557, 143.1975, 4156
17:58:03.051678, 143.2, 4154
17:58:03.051712, 143.2025, 4169
17:58:03.051739, 143.205, 4106
17:58:03.051768, 143.2075, 4165
17:58:03.052306, 143.21, 4168
17:58:03.052350, 143.2125, 4180
17:58:03.052372, 143.215, 4167
17:58:03.052392, 143.2175, 4182
17:58:03.053045, 143.22, 4167
17:58:03.053086, 143.2225, 4105
17:58:03.053111, 143.225, 4175
17:58:03.053135, 143.2275, 4174
17:58:03.070465, 143.23, 4170
17:58:03.070593, 143.2325, 4163
17:58:03.070641, 143.235, 4178
17:58:03.070687, 143.2375, 4180
17:58:03.072436, 143.24, 4153
17:58:03.072488, 143.2425, 4185
17:58:03.072557, 143.245, 4174
17:58:03.072606, 143.2475, 4162
17:58:03.088716, 143.25, 4191
17:58:03.088780, 143.2525, 4209
17:58:03.088803, 143.255, 4195
17:58:03.088835, 143.2575, 4119
17:58:03.089187, 143.26, 4191
17:58:03.089209, 143.2625, 4183
17:58:03.089225, 143.265, 4182
17:58:03.089240, 143.2675, 4169
17:58:03.098126, 143.27, 4152
17:58:03.098218, 143.2725, 4168
17:58:03.098276, 143.275, 4102
17:58:03.098328, 143.2775, 4150
17:58:03.130770, 143.28, 4177
17:58:03.130873, 143.2825, 4162
17:58:03.130918, 143.285, 4163
17:58:03.130959, 143.2875, 4167
17:58:03.131549, 143.29, 4191
17:58:03.131587, 143.2925, 4122
17:58:03.131620, 143.295, 4196
17:58:03.131650, 143.2975, 4168
17:58:03.131679, 143.3, 4173
17:58:03.132705, 143.3025, 4178
17:58:03.132732, 143.305, 4188
17:58:03.132752, 143.3075, 4198
17:58:03.132770, 143.31, 4123
17:58:03.161105, 143.3125, 4214
17:58:03.161197, 143.315, 4201
17:58:03.161253, 143.3175, 4185
17:58:03.161301, 143.32, 4156
17:58:03.162018, 143.3225, 4146
17:58:03.162068, 143.325, 4148
17:58:03.162102, 143.3275, 4059
17:58:03.162133, 143.33, 4117
17:58:03.168471, 143.3325, 4112
17:58:03.168523, 143.335, 4128
17:58:03.168556, 143.3375, 4130
17:58:03.168585, 143.34, 4146
17:58:03.191047, 143.3425, 4143
17:58:03.191146, 143.345, 4086
17:58:03.191199, 143.3475, 4155
17:58:03.191245, 143.35, 4138
17:58:03.191927, 143.3525, 4153
17:58:03.191974, 143.355, 4158
17:58:03.192007, 143.3575, 4181
17:58:03.192038, 143.36, 4188
17:58:03.193929, 143.3625, 4137
17:58:03.193972, 143.365, 4235
17:58:03.194006, 143.3675, 4217
17:58:03.194036, 143.37, 4208
17:58:03.203290, 143.3725, 4206
17:58:03.203352, 143.375, 4211
17:58:03.203371, 143.3775, 4196
17:58:03.203387, 143.38, 4122
17:58:03.204061, 143.3825, 4199
17:58:03.224323, 143.385, 4185
17:58:03.224438, 143.3875, 4180
17:58:03.224475, 143.39, 4180
17:58:03.224522, 143.3925, 4175
17:58:03.225037, 143.395, 4176
17:58:03.225077, 143.3975, 4106
17:58:03.225106, 143.4, 4208
17:58:03.225133, 143.4025, 4183
17:58:03.258330, 143.405, 4172
17:58:03.258403, 143.4075, 4169
17:58:03.258435, 143.41, 4200
17:58:03.258523, 143.4125, 4187
17:58:03.258943, 143.415, 4143
17:58:03.258965, 143.4175, 4169
17:58:03.259005, 143.42, 4179
17:58:03.259022, 143.4225, 4206
17:58:03.259279, 143.425, 4268
17:58:03.259298, 143.4275, 4349
17:58:03.259313, 143.43, 4396
17:58:03.259327, 143.4325, 4376
17:58:03.263771, 143.435, 4477
17:58:03.263806, 143.4375, 4491
17:58:03.263821, 143.44, 4427
17:58:03.263835, 143.4425, 4249
17:58:03.295727, 143.445, 4047
17:58:03.295819, 143.4475, 3804
17:58:03.295849, 143.45, 3435
17:58:03.295877, 143.4525, 3149
17:58:03.296335, 143.455, 2757
17:58:03.296365, 143.4575, 2251
17:58:03.296385, 143.46, 1922
17:58:03.296404, 143.4625, 1827
17:58:03.296423, 143.465, 1900
17:58:03.298832, 143.4675, 2239
17:58:03.298883, 143.47, 2966
17:58:03.298904, 143.4725, 3836
17:58:03.298923, 143.475, 4509
17:58:03.332271, 143.4775, 4807
17:58:03.332323, 143.48, 4898
17:58:03.332342, 143.4825, 4834
17:58:03.332395, 143.485, 4604
17:58:03.332672, 143.4875, 4571
17:58:03.332695, 143.49, 4541
17:58:03.332709, 143.4925, 4516
17:58:03.332723, 143.495, 4515
17:58:03.332963, 143.4975, 4538
17:58:03.333005, 143.5, 4510
17:58:03.333059, 143.5025, 4414
17:58:03.333109, 143.505, 4511
17:58:03.334213, 143.5075, 4516
17:58:03.334279, 143.51, 4516
17:58:03.334331, 143.5125, 4503
17:58:03.334383, 143.515, 4479
17:58:03.365930, 143.5175, 4487
17:58:03.366039, 143.52, 4402
17:58:03.366083, 143.5225, 4457
17:58:03.366123, 143.525, 4441
17:58:03.366833, 143.5275, 4424
17:58:03.366902, 143.53, 4425
17:58:03.366943, 143.5325, 4433
17:58:03.366976, 143.535, 4433
17:58:03.369635, 143.5375, 4371
17:58:03.369671, 143.54, 4451
17:58:03.369735, 143.5425, 4435
17:58:03.369756, 143.545, 4425
17:58:03.369806, 143.5475, 4390
17:58:03.391725, 143.55, 4432
17:58:03.391821, 143.5525, 4416
17:58:03.391860, 143.555, 4349
17:58:03.392010, 143.5575, 4393
17:58:03.392574, 143.56, 4362
17:58:03.392616, 143.5625, 4363
17:58:03.392646, 143.565, 4340
17:58:03.392675, 143.5675, 4342
17:58:03.421811, 143.57, 4310
17:58:03.421908, 143.5725, 4232
17:58:03.421958, 143.575, 4331
17:58:03.422025, 143.5775, 4311
17:58:03.422684, 143.58, 4292
17:58:03.422741, 143.5825, 4312
17:58:03.422767, 143.585, 4292
17:58:03.422790, 143.5875, 4288
17:58:03.423223, 143.59, 4213
17:58:03.423272, 143.5925, 4252
17:58:03.423295, 143.595, 4249
17:58:03.423317, 143.5975, 4228
17:58:03.429887, 143.6, 4221
17:58:03.429922, 143.6025, 4245
17:58:03.429937, 143.605, 4223
17:58:03.429951, 143.6075, 4168
17:58:03.429964, 143.61, 4251
17:58:03.461350, 143.6125, 4240
17:58:03.461469, 143.615, 4251
17:58:03.461514, 143.6175, 4254
17:58:03.461580, 143.62, 4245
17:58:03.462174, 143.6225, 4228
17:58:03.462215, 143.625, 4162
17:58:03.462243, 143.6275, 4225
17:58:03.462269, 143.63, 4224
17:58:03.464915, 143.6325, 4218
17:58:03.464940, 143.635, 4212
17:58:03.464957, 143.6375, 4215
17:58:03.464972, 143.64, 4196
17:58:03.495905, 143.6425, 4158
17:58:03.496030, 143.645, 4203
17:58:03.496102, 143.6475, 4206
17:58:03.496166, 143.65, 4181
17:58:03.496951, 143.6525, 4161
17:58:03.497008, 143.655, 4207
17:58:03.497046, 143.6575, 4186
17:58:03.497080, 143.66, 4133
17:58:03.522172, 143.6625, 4200
17:58:03.522263, 143.665, 4183
17:58:03.522311, 143.6675, 4212
17:58:03.522362, 143.67, 4224
17:58:03.523050, 143.6725, 4227
17:58:03.523114, 143.675, 4221
17:58:03.523150, 143.6775, 4140
17:58:03.523180, 143.68, 4224
17:58:03.523704, 143.6825, 4215
17:58:03.523753, 143.685, 4201
17:58:03.523782, 143.6875, 4220
17:58:03.523808, 143.69, 4244
17:58:03.526433, 143.6925, 4227
17:58:03.526480, 143.695, 4109
17:58:03.526507, 143.6975, 4209
17:58:03.526533, 143.7, 4198
17:58:03.526559, 143.7025, 4192
17:58:03.535175, 143.705, 4204
17:58:03.535198, 143.7075, 4188
17:58:03.535213, 143.71, 4199
17:58:03.535227, 143.7125, 4111
17:58:03.555547, 143.715, 4196
17:58:03.555657, 143.7175, 4194
17:58:03.555715, 143.72, 4176
17:58:03.555810, 143.7225, 4194
17:58:03.556702, 143.725, 4166
17:58:03.556780, 143.7275, 4160
17:58:03.556843, 143.73, 4090
17:58:03.556879, 143.7325, 4160
17:58:03.572065, 143.735, 4142
17:58:03.572134, 143.7375, 4125
17:58:03.572156, 143.74, 4130
17:58:03.572175, 143.7425, 4117
17:58:03.595944, 143.745, 4117
17:58:03.596099, 143.7475, 4047
17:58:03.596174, 143.75, 4103
17:58:03.596223, 143.7525, 4102
17:58:03.597045, 143.755, 4091
17:58:03.597098, 143.7575, 4080
17:58:03.597143, 143.76, 4086
17:58:03.597185, 143.7625, 4089
17:58:03.597228, 143.765, 4029
17:58:03.597974, 143.7675, 4112
17:58:03.598024, 143.77, 4119
17:58:03.598067, 143.7725, 4102
17:58:03.598109, 143.775, 4094
17:58:03.624173, 143.7775, 4088
17:58:03.624229, 143.78, 4093
17:58:03.624253, 143.7825, 4054
17:58:03.624285, 143.785, 4134
17:58:03.624647, 143.7875, 4138
17:58:03.624669, 143.79, 4155
17:58:03.624684, 143.7925, 4151
17:58:03.624699, 143.795, 4170
17:58:03.664383, 143.7975, 4152
17:58:03.664440, 143.8, 4106
17:58:03.664488, 143.8025, 4186
17:58:03.664522, 143.805, 4186
17:58:03.664809, 143.8075, 4164
17:58:03.664831, 143.81, 4175
17:58:03.664846, 143.8125, 4172
17:58:03.664860, 143.815, 4191
17:58:03.665107, 143.8175, 4116
17:58:03.665125, 143.82, 4184
17:58:03.665140, 143.8225, 4201
17:58:03.665154, 143.825, 4180
17:58:03.665167, 143.8275, 4165
17:58:03.665414, 143.83, 4197
17:58:03.665432, 143.8325, 4219
17:58:03.665446, 143.835, 4132
17:58:03.665460, 143.8375, 4193
17:58:03.666219, 143.84, 4181
17:58:03.666238, 143.8425, 4179
17:58:03.666252, 143.845, 4179
17:58:03.666266, 143.8475, 4199
17:58:03.698598, 143.85, 4194
17:58:03.698643, 143.8525, 4129
17:58:03.698676, 143.855, 4205
17:58:03.698695, 143.8575, 4196
17:58:03.699051, 143.86, 4201
17:58:03.699077, 143.8625, 4179
17:58:03.699092, 143.865, 4158
17:58:03.699107, 143.8675, 4148
17:58:03.701228, 143.87, 4072
17:58:03.701261, 143.8725, 4196
17:58:03.701277, 143.875, 4191
17:58:03.701290, 143.8775, 4173
17:58:03.701303, 143.88, 4189
17:58:03.732347, 143.8825, 4181
17:58:03.732405, 143.885, 4189
17:58:03.732462, 143.8875, 4114
17:58:03.732568, 143.89, 4193
17:58:03.734562, 143.8925, 4170
17:58:03.734596, 143.895, 4178
17:58:03.734616, 143.8975, 4181
17:58:03.734634, 143.9, 4178
17:58:03.735801, 143.9025, 4167
17:58:03.735832, 143.905, 4136
17:58:03.735851, 143.9075, 4149
17:58:03.735870, 143.91, 4169
17:58:03.767064, 143.9125, 4155
17:58:03.767139, 143.915, 4073
17:58:03.767164, 143.9175, 4188
17:58:03.767182, 143.92, 4158
17:58:03.767559, 143.9225, 4092
17:58:03.767586, 143.925, 4138
17:58:03.767601, 143.9275, 4150
17:58:03.767616, 143.93, 4155
17:58:03.767868, 143.9325, 4175
17:58:03.767891, 143.935, 4168
17:58:03.767905, 143.9375, 4149
17:58:03.767923, 143.94, 4028
17:58:03.772280, 143.9425, 4178
17:58:03.772353, 143.945, 4168
17:58:03.772375, 143.9475, 4169
17:58:03.772392, 143.95, 4177
17:58:03.797646, 143.9525, 4187
17:58:03.797710, 143.955, 4182
17:58:03.797735, 143.9575, 4106
17:58:03.797757, 143.96, 4167
17:58:03.798143, 143.9625, 4150
17:58:03.798167, 143.965, 4173
17:58:03.798183, 143.9675, 4166
17:58:03.798197, 143.97, 4176
17:58:03.798212, 143.9725, 4175
17:58:03.806492, 143.975, 4138
17:58:03.806538, 143.9775, 4176
17:58:03.807547, 143.98, 4169
17:58:03.807741, 143.9825, 4171
17:58:03.830801, 143.985, 4181
17:58:03.830875, 143.9875, 4206
17:58:03.830899, 143.99, 4221
17:58:03.830919, 143.9925, 4135
17:58:03.831256, 143.995, 4197
17:58:03.831281, 143.9975, 4178
17:58:03.831296, 144.0, 4174
17:58:03.831311, 144.0025, 4179
17:58:03.832484, 144.005, 4173
17:58:03.832510, 144.0075, 4178
17:58:03.832525, 144.01, 4097
17:58:03.832540, 144.0125, 4187
17:58:03.862937, 144.015, 4186
17:58:03.863006, 144.0175, 4164
17:58:03.863064, 144.02, 4168
17:58:03.863100, 144.0225, 4155
17:58:03.863417, 144.025, 4175
17:58:03.863442, 144.0275, 4102
17:58:03.863457, 144.03, 4177
17:58:03.863472, 144.0325, 4173
17:58:03.867490, 144.035, 4167
17:58:03.867526, 144.0375, 4122
17:58:03.867541, 144.04, 4118
17:58:03.867555, 144.0425, 4122
17:58:03.895530, 144.045, 4057
17:58:03.895605, 144.0475, 4162
17:58:03.895636, 144.05, 4157
17:58:03.895663, 144.0525, 4156
17:58:03.895692, 144.055, 4169
17:58:03.896718, 144.0575, 4185
17:58:03.896798, 144.06, 4168
17:58:03.896852, 144.0625, 4077
17:58:03.896904, 144.065, 4167
17:58:03.897903, 144.0675, 4161
17:58:03.897980, 144.07, 4170
17:58:03.898034, 144.0725, 4171
17:58:03.898152, 144.075, 4176
17:58:03.902832, 144.0775, 4182
17:58:03.902914, 144.08, 4117
17:58:03.902955, 144.0825, 4183
17:58:03.902990, 144.085, 4171
17:58:03.927792, 144.0875, 4181
17:58:03.927887, 144.09, 4176
17:58:03.927924, 144.0925, 4179
17:58:03.927955, 144.095, 4171
17:58:03.928730, 144.0975, 4149
17:58:03.928767, 144.1, 4161
17:58:03.928789, 144.1025, 4163
17:58:03.928809, 144.105, 4175
17:58:03.937476, 144.1075, 4179
17:58:03.937528, 144.11, 4182
17:58:03.937562, 144.1125, 4173
17:58:03.937596, 144.115, 4111
17:58:03.937648, 144.1175, 4176
17:58:03.965411, 144.12, 4178
17:58:03.965488, 144.1225, 4175
17:58:03.965515, 144.125, 4175
17:58:03.965534, 144.1275, 4183
17:58:03.965900, 144.13, 4180
17:58:03.965926, 144.1325, 4075
17:58:03.965945, 144.135, 4176
17:58:03.965963, 144.1375, 4193
17:58:03.973478, 144.14, 4185
17:58:03.973565, 144.1425, 4174
17:58:03.973588, 144.145, 4162
17:58:03.973610, 144.1475, 4185
17:58:04.001921, 144.15, 4125
17:58:04.002001, 144.1525, 4167
17:58:04.002050, 144.155, 4168
17:58:04.002089, 144.1575, 4160
17:58:04.003013, 144.16, 4167
17:58:04.003065, 144.1625, 4176
17:58:04.003125, 144.165, 4181
17:58:04.003145, 144.1675, 4124
17:58:04.003758, 144.17, 4207
17:58:04.003791, 144.1725, 4193
17:58:04.003810, 144.175, 4186
17:58:04.003861, 144.1775, 4162
17:58:04.028607, 144.18, 4170
17:58:04.028675, 144.1825, 4187
17:58:04.028699, 144.185, 4086
17:58:04.028719, 144.1875, 4178
17:58:04.029095, 144.19, 4148
17:58:04.029121, 144.1925, 4155
17:58:04.029136, 144.195, 4136
17:58:04.029151, 144.1975, 4170
17:58:04.033744, 144.2, 4164
17:58:04.033782, 144.2025, 4090
17:58:04.033798, 144.205, 4154
17:58:04.033813, 144.2075, 4161
17:58:04.065095, 144.21, 4144
17:58:04.065160, 144.2125, 4148
17:58:04.065184, 144.215, 4178
17:58:04.065207, 144.2175, 4158
17:58:04.065227, 144.22, 4090
17:58:04.065622, 144.2225, 4166
17:58:04.065647, 144.225, 4157
17:58:04.065663, 144.2275, 4155
17:58:04.065678, 144.23, 4162
17:58:04.065929, 144.2325, 4166
17:58:04.065948, 144.235, 4168
17:58:04.065962, 144.2375, 4097
17:58:04.065977, 144.24, 4187
17:58:04.068594, 144.2425, 4165
17:58:04.068615, 144.245, 4160
17:58:04.068630, 144.2475, 4155
17:58:04.068645, 144.25, 4170
17:58:04.099920, 144.2525, 4158
17:58:04.099987, 144.255, 4067
17:58:04.100053, 144.2575, 4167
17:58:04.100102, 144.26, 4154
17:58:04.100394, 144.2625, 4163
17:58:04.100417, 144.265, 4175
17:58:04.100433, 144.2675, 4176
17:58:04.100447, 144.27, 4169
17:58:04.103607, 144.2725, 4089
17:58:04.103632, 144.275, 4154
17:58:04.103647, 144.2775, 4179
17:58:04.103662, 144.28, 4160
17:58:04.125089, 144.2825, 4153
17:58:04.125173, 144.285, 4151
17:58:04.125197, 144.2875, 4145
17:58:04.125218, 144.29, 4066
17:58:04.125239, 144.2925, 4148
17:58:04.125656, 144.295, 4146
17:58:04.125691, 144.2975, 4141
17:58:04.125707, 144.3, 4154
17:58:04.125726, 144.3025, 4177
17:58:04.129872, 144.305, 4158
17:58:04.129935, 144.3075, 4081
17:58:04.129951, 144.31, 4183
17:58:04.129966, 144.3125, 4181
17:58:04.161333, 144.315, 4155
17:58:04.161407, 144.3175, 4147
17:58:04.161445, 144.32, 4152
17:58:04.161499, 144.3225, 4153
17:58:04.161954, 144.325, 4113
17:58:04.161985, 144.3275, 4132
17:58:04.162011, 144.33, 4148
17:58:04.162035, 144.3325, 4152
17:58:04.165027, 144.335, 4173
17:58:04.165059, 144.3375, 4176
17:58:04.165085, 144.34, 4162
17:58:04.165109, 144.3425, 4090
17:58:04.192034, 144.345, 4167
17:58:04.192143, 144.3475, 4152
17:58:04.192230, 144.35, 4142
17:58:04.192287, 144.3525, 4151
17:58:04.192340, 144.355, 4164
17:58:04.193216, 144.3575, 4144
17:58:04.193281, 144.36, 4078
17:58:04.193325, 144.3625, 4147
17:58:04.193368, 144.365, 4143
17:58:04.200272, 144.3675, 4156
17:58:04.200333, 144.37, 4140
17:58:04.200368, 144.3725, 4141
17:58:04.200400, 144.375, 4127
17:58:04.226037, 144.3775, 4102
17:58:04.226147, 144.38, 4147
17:58:04.226202, 144.3825, 4141
17:58:04.226232, 144.385, 4131
17:58:04.228606, 144.3875, 4134
17:58:04.228665, 144.39, 4152
17:58:04.228692, 144.3925, 4143
17:58:04.228718, 144.395, 4085
17:58:04.229691, 144.3975, 4177
17:58:04.229721, 144.4, 4168
17:58:04.229744, 144.4025, 4157
17:58:04.229800, 144.405, 4161
17:58:04.234872, 144.4075, 4194
17:58:04.234896, 144.41, 4193
17:58:04.234910, 144.4125, 4067
17:58:04.234924, 144.415, 4186
17:58:04.271024, 144.4175, 4192
17:58:04.271089, 144.42, 4165
17:58:04.271147, 144.4225, 4151
17:58:04.271190, 144.425, 4166
17:58:04.271446, 144.4275, 4162
17:58:04.271467, 144.43, 4109
17:58:04.271481, 144.4325, 4160
17:58:04.271494, 144.435, 4171
17:58:04.271735, 144.4375, 4171
17:58:04.271753, 144.44, 4172
17:58:04.271766, 144.4425, 4172
17:58:04.271780, 144.445, 4182
17:58:04.295921, 144.4475, 4115
17:58:04.296066, 144.45, 4162
17:58:04.296140, 144.4525, 4126
17:58:04.296187, 144.455, 4133
17:58:04.296870, 144.4575, 4113
17:58:04.296924, 144.46, 4092
17:58:04.296963, 144.4625, 4047
17:58:04.297000, 144.465, 3989
17:58:04.297038, 144.4675, 4074
17:58:04.297697, 144.47, 4051
17:58:04.297744, 144.4725, 4075
17:58:04.297782, 144.475, 4080
17:58:04.297818, 144.4775, 4094
17:58:04.304990, 144.48, 4120
17:58:04.305025, 144.4825, 4066
17:58:04.305040, 144.485, 4149
17:58:04.305055, 144.4875, 4146
17:58:04.325433, 144.49, 4151
17:58:04.325518, 144.4925, 4170
17:58:04.325553, 144.495, 4181
17:58:04.325575, 144.4975, 4174
17:58:04.331146, 144.5, 4144
17:58:04.331187, 144.5025, 4193
17:58:04.331203, 144.505, 4187
17:58:04.331219, 144.5075, 4211
17:58:04.342029, 144.51, 4197
17:58:04.342127, 144.5125, 4203
17:58:04.342153, 144.515, 4204
17:58:04.342174, 144.5175, 4139
17:58:04.362896, 144.52, 4207
17:58:04.363033, 144.5225, 4201
17:58:04.363099, 144.525, 4221
17:58:04.363140, 144.5275, 4213
17:58:04.363553, 144.53, 4234
17:58:04.363582, 144.5325, 4233
17:58:04.363603, 144.535, 4156
17:58:04.363622, 144.5375, 4224
17:58:04.363640, 144.54, 4206
17:58:04.375548, 144.5425, 4199
17:58:04.375691, 144.545, 4199
17:58:04.375730, 144.5475, 4218
17:58:04.375759, 144.55, 4197
17:58:04.395399, 144.5525, 4175
17:58:04.395523, 144.555, 4201
17:58:04.395596, 144.5575, 4202
17:58:04.395670, 144.56, 4213
17:58:04.396600, 144.5625, 4240
17:58:04.396677, 144.565, 4311
17:58:04.396730, 144.5675, 4354
17:58:04.396780, 144.57, 4320
17:58:04.401219, 144.5725, 4420
17:58:04.401257, 144.575, 4442
17:58:04.401274, 144.5775, 4432
17:58:04.401289, 144.58, 4355
17:58:04.430669, 144.5825, 4170
17:58:04.430753, 144.585, 3967
17:58:04.430836, 144.5875, 3649
17:58:04.430916, 144.59, 3443
17:58:04.431407, 144.5925, 3117
17:58:04.431442, 144.595, 2743
17:58:04.431467, 144.5975, 2242
17:58:04.431491, 144.6, 1971
17:58:04.431514, 144.6025, 1838
17:58:04.436141, 144.605, 1897
17:58:04.436166, 144.6075, 2300
17:58:04.436183, 144.61, 2994
17:58:04.436197, 144.6125, 3857
17:58:04.463684, 144.615, 4495
17:58:04.463816, 144.6175, 4807
17:58:04.463876, 144.62, 4884
17:58:04.463906, 144.6225, 4765
17:58:04.464925, 144.625, 4708
17:58:04.464996, 144.6275, 4613
17:58:04.465046, 144.63, 4534
17:58:04.465091, 144.6325, 4523
17:58:04.473347, 144.635, 4490
17:58:04.473371, 144.6375, 4456
17:58:04.473386, 144.64, 4407
17:58:04.473401, 144.6425, 4484
17:58:04.475572, 144.645, 4473
17:58:04.475635, 144.6475, 4482
17:58:04.475692, 144.65, 4479
17:58:04.475714, 144.6525, 4484
17:58:04.493984, 144.655, 4468
17:58:04.494089, 144.6575, 4323
17:58:04.494117, 144.66, 4439
17:58:04.494138, 144.6625, 4442
17:58:04.497664, 144.665, 4443
17:58:04.497713, 144.6675, 4435
17:58:04.497737, 144.67, 4410
17:58:04.497760, 144.6725, 4422
17:58:04.506428, 144.675, 4337
17:58:04.506487, 144.6775, 4422
17:58:04.506524, 144.68, 4411
17:58:04.506558, 144.6825, 4392
17:58:04.506592, 144.685, 4376
17:58:04.532392, 144.6875, 4379
17:58:04.532476, 144.69, 4355
17:58:04.532515, 144.6925, 4271
17:58:04.532545, 144.695, 4327
17:58:04.533184, 144.6975, 4340
17:58:04.533223, 144.7, 4333
17:58:04.533248, 144.7025, 4346
17:58:04.533272, 144.705, 4347
17:58:04.533701, 144.7075, 4314
17:58:04.533733, 144.71, 4240
17:58:04.533757, 144.7125, 4304
17:58:04.533780, 144.715, 4303
17:58:04.571674, 144.7175, 4291
17:58:04.571735, 144.72, 4283
17:58:04.571759, 144.7225, 4305
17:58:04.571778, 144.725, 4273
17:58:04.572124, 144.7275, 4222
17:58:04.572151, 144.73, 4262
17:58:04.572195, 144.7325, 4242
17:58:04.572212, 144.735, 4227
17:58:04.572473, 144.7375, 4246
17:58:04.572492, 144.74, 4247
17:58:04.572508, 144.7425, 4199
17:58:04.572522, 144.745, 4125
17:58:04.577058, 144.7475, 4201
17:58:04.577132, 144.75, 4201
17:58:04.577167, 144.7525, 4198
17:58:04.577194, 144.755, 4207
17:58:04.599890, 144.7575, 4214
17:58:04.599983, 144.76, 4219
17:58:04.600033, 144.7625, 4146
17:58:04.600072, 144.765, 4209
17:58:04.600768, 144.7675, 4223
17:58:04.600824, 144.77, 4227
17:58:04.600861, 144.7725, 4206
17:58:04.600896, 144.775, 4222
17:58:04.635532, 144.7775, 4210
17:58:04.635624, 144.78, 4136
17:58:04.635724, 144.7825, 4213
17:58:04.635772, 144.785, 4206
17:58:04.636632, 144.7875, 4201
17:58:04.636705, 144.79, 4204
17:58:04.636755, 144.7925, 4189
17:58:04.636801, 144.795, 4192
17:58:04.637612, 144.7975, 4130
17:58:04.637672, 144.8, 4218
17:58:04.637719, 144.8025, 4218
17:58:04.637763, 144.805, 4219
17:58:04.637809, 144.8075, 4206
17:58:04.638614, 144.81, 4198
17:58:04.638672, 144.8125, 4203
17:58:04.638719, 144.815, 4131
17:58:04.638765, 144.8175, 4190
17:58:04.660983, 144.82, 4167
17:58:04.661140, 144.8225, 4160
17:58:04.661179, 144.825, 4136
17:58:04.661226, 144.8275, 4158
17:58:04.661704, 144.83, 4164
17:58:04.661757, 144.8325, 4094
17:58:04.661782, 144.835, 4197
17:58:04.661804, 144.8375, 4197
17:58:04.672818, 144.84, 4187
17:58:04.672897, 144.8425, 4185
17:58:04.672934, 144.845, 4171
17:58:04.672966, 144.8475, 4169
17:58:04.694937, 144.85, 4112
17:58:04.695171, 144.8525, 4147
17:58:04.695283, 144.855, 4174
17:58:04.695381, 144.8575, 4171
17:58:04.700909, 144.86, 4157
17:58:04.700953, 144.8625, 4141
17:58:04.700979, 144.865, 4172
17:58:04.701004, 144.8675, 4076
17:58:04.702016, 144.87, 4148
17:58:04.702045, 144.8725, 4131
17:58:04.702070, 144.875, 4150
17:58:04.702094, 144.8775, 4135
17:58:04.707527, 144.88, 4139
17:58:04.707569, 144.8825, 4126
17:58:04.707593, 144.885, 4001
17:58:04.707617, 144.8875, 4105
17:58:04.727938, 144.89, 4109
17:58:04.728041, 144.8925, 4100
17:58:04.728093, 144.895, 4110
17:58:04.728128, 144.8975, 4120
17:58:04.728161, 144.9, 4122
17:58:04.763340, 144.9025, 4104
17:58:04.763539, 144.905, 4165
17:58:04.763609, 144.9075, 4149
17:58:04.763687, 144.91, 4130
17:58:04.764440, 144.9125, 4153
17:58:04.764497, 144.915, 4149
17:58:04.764537, 144.9175, 4127
17:58:04.764576, 144.92, 4143
17:58:04.765201, 144.9225, 4182
17:58:04.765243, 144.925, 4181
17:58:04.765274, 144.9275, 4190
17:58:04.765302, 144.93, 4146
17:58:04.765850, 144.9325, 4199
17:58:04.765892, 144.935, 4218
17:58:04.765924, 144.9375, 4100
17:58:04.765957, 144.94, 4231
17:58:04.769121, 144.9425, 4220
17:58:04.769179, 144.945, 4230
17:58:04.769217, 144.9475, 4225
17:58:04.769252, 144.95, 4231
17:58:04.794806, 144.9525, 4219
17:58:04.794939, 144.955, 4165
17:58:04.794979, 144.9575, 4253
17:58:04.795046, 144.96, 4243
17:58:04.795813, 144.9625, 4248
17:58:04.795878, 144.965, 4247
17:58:04.795905, 144.9675, 4264
17:58:04.795931, 144.97, 4250
17:58:04.803881, 144.9725, 4172
17:58:04.803935, 144.975, 4266
17:58:04.803965, 144.9775, 4261
17:58:04.803990, 144.98, 4261
17:58:04.804013, 144.9825, 4266
17:58:04.829190, 144.985, 4252
17:58:04.829284, 144.9875, 4244
17:58:04.829365, 144.99, 4157
17:58:04.829410, 144.9925, 4225
17:58:04.829798, 144.995, 4226
17:58:04.829837, 144.9975, 4199
17:58:04.829855, 145.0, 4208
17:58:04.829870, 145.0025, 4213
17:58:04.838807, 145.005, 4203
17:58:04.838876, 145.0075, 4146
17:58:04.838906, 145.01, 4203
17:58:04.838932, 145.0125, 4210
17:58:04.867334, 145.015, 4202
17:58:04.867418, 145.0175, 4173
17:58:04.867455, 145.02, 4193
17:58:04.867483, 145.0225, 4184
17:58:04.867989, 145.025, 4128
17:58:04.868024, 145.0275, 4204
17:58:04.868047, 145.03, 4204
17:58:04.868070, 145.0325, 4192
17:58:04.868093, 145.035, 4197
17:58:04.868496, 145.0375, 4206
17:58:04.868526, 145.04, 4198
17:58:04.868549, 145.0425, 4052
17:58:04.868572, 145.045, 4195
17:58:04.873732, 145.0475, 4195
17:58:04.873767, 145.05, 4185
17:58:04.873791, 145.0525, 4154
17:58:04.873815, 145.055, 4185
17:58:04.906514, 145.0575, 4177
17:58:04.906613, 145.06, 4115
17:58:04.906634, 145.0625, 4188
17:58:04.906651, 145.065, 4191
17:58:04.911821, 145.0675, 4192
17:58:04.911877, 145.07, 4196
17:58:04.911906, 145.0725, 4215
17:58:04.911924, 145.075, 4181
17:58:04.936084, 145.0775, 4151
17:58:04.936146, 145.08, 4197
17:58:04.936177, 145.0825, 4200
17:58:04.936204, 145.085, 4192
17:58:04.936577, 145.0875, 4198
17:58:04.936601, 145.09, 4208
17:58:04.936616, 145.0925, 4215
17:58:04.936630, 145.095, 4085
17:58:04.936885, 145.0975, 4202
17:58:04.936904, 145.1, 4214
17:58:04.936919, 145.1025, 4164
17:58:04.936933, 145.105, 4161
17:58:04.937182, 145.1075, 4177
17:58:04.937200, 145.11, 4185
17:58:04.937215, 145.1125, 4116
17:58:04.937229, 145.115, 4197
17:58:04.973669, 145.1175, 4198
17:58:04.973722, 145.12, 4207
17:58:04.973745, 145.1225, 4173
17:58:04.973809, 145.125, 4166
17:58:04.973857, 145.1275, 4187
17:58:04.974124, 145.13, 4142
17:58:04.974145, 145.1325, 4173
17:58:04.974159, 145.135, 4181
17:58:04.974173, 145.1375, 4178
17:58:04.974423, 145.14, 4178
17:58:04.974441, 145.1425, 4209
17:58:04.974456, 145.145, 4195
17:58:04.974470, 145.1475, 4094
17:58:04.978833, 145.15, 4204
17:58:04.978888, 145.1525, 4179
17:58:04.979499, 145.155, 4191
17:58:04.979523, 145.1575, 4189
17:58:05.006849, 145.16, 4215
17:58:05.006897, 145.1625, 4194
17:58:05.006916, 145.165, 4110
17:58:05.006934, 145.1675, 4174
17:58:05.007291, 145.17, 4192
17:58:05.007314, 145.1725, 4193
17:58:05.007328, 145.175, 4177
17:58:05.007342, 145.1775, 4199
17:58:05.030083, 145.18, 4204
17:58:05.030164, 145.1825, 4122
17:58:05.030187, 145.185, 4191
17:58:05.030220, 145.1875, 4187
17:58:05.032241, 145.19, 4170
17:58:05.032276, 145.1925, 4188
17:58:05.032292, 145.195, 4173
17:58:05.032307, 145.1975, 4144
17:58:05.032322, 145.2, 4072
17:58:05.040363, 145.2025, 4151
17:58:05.040398, 145.205, 4170
17:58:05.040415, 145.2075, 4149
17:58:05.040430, 145.21, 4152
17:58:05.064843, 145.2125, 4170
17:58:05.064901, 145.215, 4159
17:58:05.064923, 145.2175, 4050
17:58:05.064942, 145.22, 4211
17:58:05.065297, 145.2225, 4203
17:58:05.065317, 145.225, 4156
17:58:05.065333, 145.2275, 4147
17:58:05.065347, 145.23, 4181
17:58:05.077764, 145.2325, 4176
17:58:05.077804, 145.235, 4069
17:58:05.077824, 145.2375, 4189
17:58:05.077843, 145.24, 4192
17:58:05.078966, 145.2425, 4173
17:58:05.079028, 145.245, 4173
17:58:05.079051, 145.2475, 4193
17:58:05.079115, 145.25, 4192
17:58:05.100649, 145.2525, 4128
17:58:05.100741, 145.255, 4222
17:58:05.100767, 145.2575, 4164
17:58:05.100788, 145.26, 4151
17:58:05.101118, 145.2625, 4153
17:58:05.101144, 145.265, 4185
17:58:05.101160, 145.2675, 4193
17:58:05.101175, 145.27, 4098
17:58:05.101613, 145.2725, 4164
17:58:05.101651, 145.275, 4173
17:58:05.101680, 145.2775, 4167
17:58:05.101708, 145.28, 4176
17:58:05.101736, 145.2825, 4193
17:58:05.109985, 145.285, 4194
17:58:05.110026, 145.2875, 4115
17:58:05.110042, 145.29, 4186
17:58:05.110056, 145.2925, 4179
17:58:05.137278, 145.295, 4173
17:58:05.137339, 145.2975, 4164
17:58:05.137393, 145.3, 4188
17:58:05.137426, 145.3025, 4182
17:58:05.137771, 145.305, 4148
17:58:05.137797, 145.3075, 4162
17:58:05.137813, 145.31, 4158
17:58:05.137827, 145.3125, 4138
17:58:05.165210, 145.315, 4156
17:58:05.165302, 145.3175, 4170
17:58:05.165368, 145.32, 4186
17:58:05.165393, 145.3225, 4107
17:58:05.165725, 145.325, 4196
17:58:05.165754, 145.3275, 4192
17:58:05.165769, 145.33, 4196
17:58:05.165783, 145.3325, 4194
17:58:05.166036, 145.335, 4204
17:58:05.166061, 145.3375, 4179
17:58:05.166075, 145.34, 4047
17:58:05.166089, 145.3425, 4184
17:58:05.209057, 145.345, 4177
17:58:05.209101, 145.3475, 4158
17:58:05.209122, 145.35, 4116
17:58:05.209142, 145.3525, 4168
17:58:05.209495, 145.355, 4180
17:58:05.209521, 145.3575, 4085
17:58:05.209535, 145.36, 4184
17:58:05.209549, 145.3625, 4170
17:58:05.209792, 145.365, 4165
17:58:05.209811, 145.3675, 4160
17:58:05.209825, 145.37, 4152
17:58:05.209838, 145.3725, 4157
17:58:05.209851, 145.375, 4075
17:58:05.210091, 145.3775, 4150
17:58:05.210109, 145.38, 4169
17:58:05.210123, 145.3825, 4164
17:58:05.210137, 145.385, 4135
17:58:05.232997, 145.3875, 4186
17:58:05.233103, 145.39, 4181
17:58:05.233155, 145.3925, 4113
17:58:05.233184, 145.395, 4188
17:58:05.233612, 145.3975, 4224
17:58:05.233642, 145.4, 4188
17:58:05.233664, 145.4025, 4169
17:58:05.233684, 145.405, 4176
17:58:05.241363, 145.4075, 4180
17:58:05.241398, 145.41, 4074
17:58:05.241414, 145.4125, 4182
17:58:05.241429, 145.415, 4186
17:58:05.263863, 145.4175, 4204
17:58:05.263972, 145.42, 4181
17:58:05.264070, 145.4225, 4189
17:58:05.264110, 145.425, 4193
17:58:05.264499, 145.4275, 4116
17:58:05.264555, 145.43, 4187
17:58:05.264572, 145.4325, 4184
17:58:05.264588, 145.435, 4173
17:58:05.268016, 145.4375, 4173
17:58:05.268101, 145.44, 4194
17:58:05.268151, 145.4425, 4175
17:58:05.268197, 145.445, 4093
17:58:05.268243, 145.4475, 4167
17:58:05.276260, 145.45, 4170
17:58:05.276300, 145.4525, 4185
17:58:05.276316, 145.455, 4179
17:58:05.276331, 145.4575, 4204
17:58:05.300677, 145.46, 4201
17:58:05.300738, 145.4625, 4139
17:58:05.300771, 145.465, 4230
17:58:05.300796, 145.4675, 4184
17:58:05.302486, 145.47, 4152
17:58:05.302510, 145.4725, 4149
17:58:05.302526, 145.475, 4142
17:58:05.302540, 145.4775, 4101
17:58:05.311140, 145.48, 4025
17:58:05.311179, 145.4825, 4087
17:58:05.311195, 145.485, 4097
17:58:05.311209, 145.4875, 4082
17:58:05.335116, 145.49, 4073
17:58:05.335180, 145.4925, 4119
17:58:05.335212, 145.495, 4133
17:58:05.335239, 145.4975, 4077
17:58:05.335607, 145.5, 4159
17:58:05.335641, 145.5025, 4156
17:58:05.335658, 145.505, 4165
17:58:05.335672, 145.5075, 4143
17:58:05.337471, 145.51, 4143
17:58:05.337499, 145.5125, 4174
17:58:05.337514, 145.515, 4101
17:58:05.337528, 145.5175, 4196
17:58:05.364215, 145.52, 4176
17:58:05.364302, 145.5225, 4173
17:58:05.364334, 145.525, 4166
17:58:05.364361, 145.5275, 4178
17:58:05.364795, 145.53, 4184
17:58:05.364837, 145.5325, 4120
17:58:05.364854, 145.535, 4174
17:58:05.364869, 145.5375, 4166
17:58:05.364895, 145.54, 4178
17:58:05.372505, 145.5425, 4176
17:58:05.372551, 145.545, 4169
17:58:05.372567, 145.5475, 4169
17:58:05.372581, 145.55, 4091
17:58:05.398823, 145.5525, 4168
17:58:05.398992, 145.555, 4173
17:58:05.399051, 145.5575, 4162
17:58:05.399100, 145.56, 4186
17:58:05.399969, 145.5625, 4185
17:58:05.400029, 145.565, 4174
17:58:05.400067, 145.5675, 4092
17:58:05.400104, 145.57, 4165
17:58:05.400729, 145.5725, 4168
17:58:05.400770, 145.575, 4185
17:58:05.400806, 145.5775, 4199
17:58:05.400843, 145.58, 4277
17:58:05.431122, 145.5825, 4335
17:58:05.431246, 145.585, 4300
17:58:05.431288, 145.5875, 4398
17:58:05.431321, 145.59, 4430
17:58:05.435217, 145.5925, 4409
17:58:05.435285, 145.595, 4326
17:58:05.435319, 145.5975, 4186
17:58:05.435349, 145.6, 3945
17:58:05.435378, 145.6025, 3616
17:58:05.444719, 145.605, 3407
17:58:05.444757, 145.6075, 3102
17:58:05.444783, 145.61, 2727
17:58:05.444806, 145.6125, 2258
17:58:05.447680, 145.615, 1986
17:58:05.447861, 145.6175, 1820
17:58:05.464564, 145.62, 1852
17:58:05.464683, 145.6225, 2314
17:58:05.465202, 145.625, 2972
17:58:05.465253, 145.6275, 3898
17:58:05.465275, 145.63, 4638
17:58:05.465295, 145.6325, 4967
17:58:05.480290, 145.635, 5009
17:58:05.480352, 145.6375, 4888
17:58:05.480377, 145.64, 4790
17:58:05.480400, 145.6425, 4654
17:58:05.481429, 145.645, 4580
17:58:05.481528, 145.6475, 4542
17:58:05.481550, 145.65, 4534
17:58:05.481566, 145.6525, 4481
17:58:05.499875, 145.655, 4388
17:58:05.499953, 145.6575, 4456
17:58:05.499993, 145.66, 4480
17:58:05.500011, 145.6625, 4476
17:58:05.500359, 145.665, 4465
17:58:05.500391, 145.6675, 4512
17:58:05.500408, 145.67, 4482
17:58:05.500422, 145.6725, 4389
17:58:05.536427, 145.675, 4449
17:58:05.536563, 145.6775, 4458
17:58:05.536672, 145.68, 4431
17:58:05.536752, 145.6825, 4397
17:58:05.538142, 145.685, 4413
17:58:05.538237, 145.6875, 4393
17:58:05.538314, 145.69, 4323
17:58:05.538390, 145.6925, 4363
17:58:05.539329, 145.695, 4370
17:58:05.539372, 145.6975, 4358
17:58:05.539407, 145.7, 4347
17:58:05.539441, 145.7025, 4330
17:58:05.539474, 145.705, 4331
17:58:05.566409, 145.7075, 4199
17:58:05.566517, 145.71, 4335
17:58:05.566573, 145.7125, 4339
17:58:05.566674, 145.715, 4294
17:58:05.567555, 145.7175, 4289
17:58:05.567647, 145.72, 4298
17:58:05.567693, 145.7225, 4283
17:58:05.567744, 145.725, 4221
17:58:05.568465, 145.7275, 4321
17:58:05.568511, 145.73, 4282
17:58:05.568550, 145.7325, 4270
17:58:05.568586, 145.735, 4164
17:58:05.569231, 145.7375, 4270
17:58:05.569277, 145.74, 4226
17:58:05.569317, 145.7425, 4162
17:58:05.569354, 145.745, 4239
17:58:05.599014, 145.7475, 4250
17:58:05.599115, 145.75, 4222
17:58:05.599177, 145.7525, 4226
17:58:05.599217, 145.755, 4218
17:58:05.602549, 145.7575, 4215
17:58:05.602600, 145.76, 4160
17:58:05.602628, 145.7625, 4200
17:58:05.602652, 145.765, 4192
17:58:05.603844, 145.7675, 4201
17:58:05.603889, 145.77, 4188
17:58:05.603927, 145.7725, 4199
17:58:05.603962, 145.775, 4202
17:58:05.603999, 145.7775, 4155
17:58:05.608972, 145.78, 4219
17:58:05.609019, 145.7825, 4207
17:58:05.609056, 145.785, 4197
17:58:05.632500, 145.7875, 4183
17:58:05.632582, 145.79, 4218
17:58:05.632621, 145.7925, 4183
17:58:05.632682, 145.795, 4114
17:58:05.632717, 145.7975, 4192
17:58:05.633350, 145.8, 4189
17:58:05.633421, 145.8025, 4172
17:58:05.633460, 145.805, 4190
17:58:05.633496, 145.8075, 4199
17:58:05.644001, 145.81, 4178
17:58:05.644065, 145.8125, 4065
17:58:05.644105, 145.815, 4195
17:58:05.644143, 145.8175, 4172
17:58:05.665717, 145.82, 4185
17:58:05.665798, 145.8225, 4184
17:58:05.665826, 145.825, 4173
17:58:05.665882, 145.8275, 4173
17:58:05.666206, 145.83, 4119
17:58:05.666237, 145.8325, 4173
17:58:05.666253, 145.835, 4170
17:58:05.666268, 145.8375, 4153
17:58:05.670090, 145.84, 4158
17:58:05.670138, 145.8425, 4155
17:58:05.670160, 145.845, 4155
17:58:05.670181, 145.8475, 4071
17:58:05.678740, 145.85, 4130
17:58:05.678768, 145.8525, 4127
17:58:05.678783, 145.855, 4134
17:58:05.678798, 145.8575, 4123
17:58:05.703897, 145.86, 4153
17:58:05.703957, 145.8625, 4177
17:58:05.703979, 145.865, 4096
17:58:05.703999, 145.8675, 4174
17:58:05.704340, 145.87, 4167
17:58:05.704366, 145.8725, 4154
17:58:05.704382, 145.875, 4152
17:58:05.704397, 145.8775, 4153
17:58:05.714920, 145.88, 4157
17:58:05.714978, 145.8825, 4083
17:58:05.715080, 145.885, 4141
17:58:05.715126, 145.8875, 4136
17:58:05.715166, 145.89, 4122
17:58:05.737106, 145.8925, 4135
17:58:05.737188, 145.895, 4118
17:58:05.737224, 145.8975, 4133
17:58:05.737255, 145.9, 4044
17:58:05.737777, 145.9025, 4143
17:58:05.737812, 145.905, 4125
17:58:05.737836, 145.9075, 4137
17:58:05.737859, 145.91, 4113
17:58:05.740103, 145.9125, 4143
17:58:05.740149, 145.915, 4163
17:58:05.740181, 145.9175, 4083
17:58:05.740210, 145.92, 4175
17:58:05.749012, 145.9225, 4159
17:58:05.749759, 145.925, 4148
17:58:05.749801, 145.9275, 4125
17:58:05.749822, 145.93, 4179
17:58:05.769412, 145.9325, 4188
17:58:05.769524, 145.935, 4099
17:58:05.769563, 145.9375, 4202
17:58:05.769652, 145.94, 4203
17:58:05.775267, 145.9425, 4205
17:58:05.775330, 145.945, 4234
17:58:05.775361, 145.9475, 4222
17:58:05.775396, 145.95, 4205
17:58:05.800047, 145.9525, 4101
17:58:05.800158, 145.955, 4200
17:58:05.800220, 145.9575, 4211
17:58:05.800271, 145.96, 4227
17:58:05.800321, 145.9625, 4227
17:58:05.801311, 145.965, 4246
17:58:05.801390, 145.9675, 4225
17:58:05.801443, 145.97, 4140
17:58:05.801487, 145.9725, 4233
17:58:05.802243, 145.975, 4230
17:58:05.802301, 145.9775, 4240
17:58:05.802343, 145.98, 4238
17:58:05.802387, 145.9825, 4237
17:58:05.809973, 145.985, 4230
17:58:05.810024, 145.9875, 4171
17:58:05.810057, 145.99, 4235
17:58:05.810080, 145.9925, 4227
17:58:05.833704, 145.995, 4241
17:58:05.833803, 145.9975, 4241
17:58:05.833867, 146.0, 4250
17:58:05.833930, 146.0025, 4195
17:58:05.836854, 146.005, 4188
17:58:05.836953, 146.0075, 4215
17:58:05.837010, 146.01, 4201
17:58:05.837066, 146.0125, 4204
17:58:05.845021, 146.015, 4202
17:58:05.845058, 146.0175, 4205
17:58:05.845083, 146.02, 4177
17:58:05.845106, 146.0225, 4129
17:58:05.867972, 146.025, 4197
17:58:05.868077, 146.0275, 4195
17:58:05.868113, 146.03, 4190
17:58:05.868144, 146.0325, 4175
17:58:05.868706, 146.035, 4189
17:58:05.868766, 146.0375, 4190
17:58:05.868789, 146.04, 4129
17:58:05.868811, 146.0425, 4186
17:58:05.871471, 146.045, 4198
17:58:05.871527, 146.0475, 4193
17:58:05.871558, 146.05, 4186
17:58:05.871587, 146.0525, 4209
17:58:05.911972, 146.055, 4212
17:58:05.912030, 146.0575, 4145
17:58:05.912054, 146.06, 4214
17:58:05.912074, 146.0625, 4201
17:58:05.912484, 146.065, 4187
17:58:05.912512, 146.0675, 4168
17:58:05.912528, 146.07, 4158
17:58:05.912543, 146.0725, 4186
17:58:05.912558, 146.075, 4127
17:58:05.912829, 146.0775, 4194
17:58:05.912850, 146.08, 4204
17:58:05.912865, 146.0825, 4184
17:58:05.912879, 146.085, 4174
17:58:05.915752, 146.0875, 4195
17:58:05.915799, 146.09, 4169
17:58:05.915818, 146.0925, 4088
17:58:05.915882, 146.095, 4187
17:58:05.934539, 146.0975, 4182
17:58:05.934626, 146.1, 4171
17:58:05.934658, 146.1025, 4168
17:58:05.934686, 146.105, 4152
17:58:05.935309, 146.1075, 4162
17:58:05.935377, 146.11, 4099
17:58:05.935405, 146.1125, 4190
17:58:05.935428, 146.115, 4202
17:58:05.950044, 146.1175, 4176
17:58:05.950826, 146.12, 4185
17:58:05.950932, 146.1225, 4190
17:58:05.950957, 146.125, 4170
17:58:05.967664, 146.1275, 4146
17:58:05.967810, 146.13, 4171
17:58:05.967877, 146.1325, 4177
17:58:05.967948, 146.135, 4176
17:58:05.968797, 146.1375, 4169
17:58:05.968868, 146.14, 4183
17:58:05.968911, 146.1425, 4180
17:58:05.968951, 146.145, 4099
17:58:05.976530, 146.1475, 4177
17:58:05.976590, 146.15, 4177
17:58:05.976626, 146.1525, 4193
17:58:05.976660, 146.155, 4170
17:58:06.000950, 146.1575, 4173
17:58:06.001064, 146.16, 4195
17:58:06.001113, 146.1625, 4114
17:58:06.001155, 146.165, 4191
17:58:06.001765, 146.1675, 4194
17:58:06.001822, 146.17, 4173
17:58:06.001852, 146.1725, 4191
17:58:06.001880, 146.175, 4189
17:58:06.034609, 146.1775, 4194
17:58:06.034743, 146.18, 4104
17:58:06.034792, 146.1825, 4194
17:58:06.034876, 146.185, 4216
17:58:06.034920, 146.1875, 4185
17:58:06.035536, 146.19, 4153
17:58:06.035593, 146.1925, 4166
17:58:06.035625, 146.195, 4180
17:58:06.035656, 146.1975, 4133
17:58:06.036095, 146.2, 4196
17:58:06.036137, 146.2025, 4189
17:58:06.036166, 146.205, 4177
17:58:06.036194, 146.2075, 4157
17:58:06.037713, 146.21, 4219
17:58:06.037754, 146.2125, 4209
17:58:06.037783, 146.215, 4128
17:58:06.037814, 146.2175, 4200
17:58:06.046358, 146.22, 4210
17:58:06.046396, 146.2225, 4189
17:58:06.046420, 146.225, 4166
17:58:06.046442, 146.2275, 4167
17:58:06.068604, 146.23, 4174
17:58:06.068699, 146.2325, 4088
17:58:06.068736, 146.235, 4167
17:58:06.068769, 146.2375, 4174
17:58:06.083791, 146.24, 4169
17:58:06.083846, 146.2425, 4168
17:58:06.083869, 146.245, 4156
17:58:06.083890, 146.2475, 4161
17:58:06.102327, 146.25, 4117
17:58:06.102427, 146.2525, 4171
17:58:06.102459, 146.255, 4178
17:58:06.102485, 146.2575, 4191
17:58:06.102511, 146.26, 4197
17:58:06.103140, 146.2625, 4191
17:58:06.103208, 146.265, 4169
17:58:06.103234, 146.2675, 4060
17:58:06.103256, 146.27, 4178
17:58:06.103616, 146.2725, 4179
17:58:06.103646, 146.275, 4170
17:58:06.103667, 146.2775, 4174
17:58:06.103688, 146.28, 4183
17:58:06.107979, 146.2825, 4181
17:58:06.108062, 146.285, 4098
17:58:06.108117, 146.2875, 4191
17:58:06.108168, 146.29, 4183
17:58:06.140109, 146.2925, 4171
17:58:06.140205, 146.295, 4179
17:58:06.140296, 146.2975, 4152
17:58:06.140338, 146.3, 4180
17:58:06.140993, 146.3025, 4125
17:58:06.141041, 146.305, 4166
17:58:06.141074, 146.3075, 4171
17:58:06.141105, 146.31, 4162
17:58:06.142793, 146.3125, 4157
17:58:06.142876, 146.315, 4191
17:58:06.142939, 146.3175, 4157
17:58:06.142983, 146.32, 4091
17:58:06.151652, 146.3225, 4166
17:58:06.151689, 146.325, 4167
17:58:06.151738, 146.3275, 4163
17:58:06.151761, 146.33, 4144
17:58:06.171499, 146.3325, 4144
17:58:06.171636, 146.335, 4178
17:58:06.171676, 146.3375, 4103
17:58:06.171710, 146.34, 4178
17:58:06.171747, 146.3425, 4162
17:58:06.177639, 146.345, 4176
17:58:06.177686, 146.3475, 4173
17:58:06.177714, 146.35, 4168
17:58:06.177739, 146.3525, 4163
17:58:06.202546, 146.355, 4142
17:58:06.202633, 146.3575, 4174
17:58:06.202671, 146.36, 4179
17:58:06.202705, 146.3625, 4164
17:58:06.203636, 146.365, 4177
17:58:06.203705, 146.3675, 4175
17:58:06.203752, 146.37, 4161
17:58:06.203843, 146.3725, 4089
17:58:06.204597, 146.375, 4168
17:58:06.204652, 146.3775, 4165
17:58:06.204692, 146.38, 4153
17:58:06.204739, 146.3825, 4149
17:58:06.212642, 146.385, 4161
17:58:06.212689, 146.3875, 4162
17:58:06.212714, 146.39, 4089
17:58:06.212739, 146.3925, 4170
17:58:06.235822, 146.395, 4154
17:58:06.235910, 146.3975, 4152
17:58:06.236035, 146.4, 4145
17:58:06.236111, 146.4025, 4158
17:58:06.238994, 146.405, 4161
17:58:06.239060, 146.4075, 4099
17:58:06.239092, 146.41, 4168
17:58:06.239122, 146.4125, 4176
17:58:06.239152, 146.415, 4185
17:58:06.247450, 146.4175, 4184
17:58:06.247478, 146.42, 4200
17:58:06.247493, 146.4225, 4191
17:58:06.247506, 146.425, 4098
17:58:06.271160, 146.4275, 4173
17:58:06.271242, 146.43, 4151
17:58:06.271280, 146.4325, 4153
17:58:06.271315, 146.435, 4167
17:58:06.271869, 146.4375, 4157
17:58:06.271954, 146.44, 4164
17:58:06.272009, 146.4425, 4089
17:58:06.272047, 146.445, 4180
17:58:06.274000, 146.4475, 4167
17:58:06.274059, 146.45, 4169
17:58:06.274098, 146.4525, 4184
17:58:06.274135, 146.455, 4170
17:58:06.310262, 146.4575, 4181
17:58:06.310342, 146.46, 4103
17:58:06.310386, 146.4625, 4195
17:58:06.310412, 146.465, 4196
17:58:06.310872, 146.4675, 4168
17:58:06.310901, 146.47, 4174
17:58:06.310920, 146.4725, 4190
17:58:06.310939, 146.475, 4184
17:58:06.311270, 146.4775, 4104
17:58:06.311294, 146.48, 4193
17:58:06.311313, 146.4825, 4173
17:58:06.311332, 146.485, 4183
17:58:06.311350, 146.4875, 4180
17:58:06.317917, 146.49, 4201
17:58:06.317995, 146.4925, 4177
17:58:06.318015, 146.495, 4107
17:58:06.318034, 146.4975, 4189
17:58:06.339984, 146.5, 4172
17:58:06.340069, 146.5025, 4200
17:58:06.340111, 146.505, 4199
17:58:06.340149, 146.5075, 4187
17:58:06.340775, 146.51, 4180
17:58:06.340817, 146.5125, 4099
17:58:06.340845, 146.515, 4168
17:58:06.340873, 146.5175, 4161
17:58:06.370631, 146.52, 4148
17:58:06.370732, 146.5225, 4145
17:58:06.370762, 146.525, 4163
17:58:06.370805, 146.5275, 4147
17:58:06.371339, 146.53, 4116
17:58:06.371395, 146.5325, 4155
17:58:06.371418, 146.535, 4147
17:58:06.371440, 146.5375, 4155
17:58:06.371812, 146.54, 4149
17:58:06.371848, 146.5425, 4143
17:58:06.371869, 146.545, 4158
17:58:06.371889, 146.5475, 4087
17:58:06.403246, 146.55, 4177
17:58:06.403342, 146.5525, 4170
17:58:06.403378, 146.555, 4171
17:58:06.403410, 146.5575, 4170
17:58:06.403994, 146.56, 4171
17:58:06.404050, 146.5625, 4155
17:58:06.404074, 146.565, 4105
17:58:06.404098, 146.5675, 4197
17:58:06.404984, 146.57, 4181
17:58:06.405022, 146.5725, 4164
17:58:06.405044, 146.575, 4105
17:58:06.405066, 146.5775, 4151
17:58:06.405087, 146.58, 4111
17:58:06.413924, 146.5825, 4024
17:58:06.413983, 146.585, 4078
17:58:06.414019, 146.5875, 4062
17:58:06.414054, 146.59, 4092
17:58:06.438016, 146.5925, 4136
17:58:06.438120, 146.595, 4135
17:58:06.438154, 146.5975, 4158
17:58:06.438184, 146.6, 4070
17:58:06.438744, 146.6025, 4170
17:58:06.438787, 146.605, 4170
17:58:06.438810, 146.6075, 4192
17:58:06.438831, 146.61, 4197
17:58:06.440360, 146.6125, 4203
17:58:06.440420, 146.615, 4150
17:58:06.440459, 146.6175, 4085
17:58:06.440496, 146.62, 4171
17:58:06.449031, 146.6225, 4172
17:58:06.449096, 146.625, 4160
17:58:06.449137, 146.6275, 4148
17:58:06.449175, 146.63, 4155
17:58:06.472787, 146.6325, 4149
17:58:06.472859, 146.635, 4063
17:58:06.472890, 146.6375, 4166
17:58:06.472934, 146.64, 4173
17:58:06.475059, 146.6425, 4168
17:58:06.475115, 146.645, 4174
17:58:06.475148, 146.6475, 4166
17:58:06.475177, 146.65, 4147
17:58:06.484041, 146.6525, 4092
17:58:06.484199, 146.655, 4176
17:58:06.484332, 146.6575, 4151
17:58:06.484372, 146.66, 4152
17:58:06.508495, 146.6625, 4151
17:58:06.508573, 146.665, 4168
17:58:06.508605, 146.6675, 4172
17:58:06.508630, 146.67, 4086
17:58:06.508657, 146.6725, 4188
17:58:06.509509, 146.675, 4226
17:58:06.509583, 146.6775, 4302
17:58:06.509636, 146.68, 4380
17:58:06.509688, 146.6825, 4406
17:58:06.510597, 146.685, 4438
17:58:06.510663, 146.6875, 4388
17:58:06.510714, 146.69, 4497
17:58:06.510764, 146.6925, 4374
17:58:06.536833, 146.695, 4204
17:58:06.536933, 146.6975, 3987
17:58:06.537030, 146.7, 3720
17:58:06.537056, 146.7025, 3389
17:58:06.537547, 146.705, 3028
17:58:06.537589, 146.7075, 2655
17:58:06.537606, 146.71, 2145
17:58:06.537622, 146.7125, 1868
17:58:06.545040, 146.715, 1836
17:58:06.545115, 146.7175, 1880
17:58:06.545134, 146.72, 2331
17:58:06.545150, 146.7225, 3054
17:58:06.554622, 146.725, 3974
17:58:06.554682, 146.7275, 4566
17:58:06.554710, 146.73, 4858
17:58:06.554728, 146.7325, 4886
17:58:06.572158, 146.735, 4790
17:58:06.572244, 146.7375, 4635
17:58:06.572274, 146.74, 4461
17:58:06.572326, 146.7425, 4531
17:58:06.572785, 146.745, 4537
17:58:06.572812, 146.7475, 4508
17:58:06.572833, 146.75, 4509
17:58:06.572852, 146.7525, 4517
17:58:06.614507, 146.755, 4525
17:58:06.614598, 146.7575, 4450
17:58:06.614621, 146.76, 4522
17:58:06.614660, 146.7625, 4515
17:58:06.614678, 146.765, 4508
17:58:06.614951, 146.7675, 4497
17:58:06.614973, 146.77, 4509
17:58:06.614987, 146.7725, 4491
17:58:06.615002, 146.775, 4379
17:58:06.617905, 146.7775, 4464
17:58:06.617990, 146.78, 4456
17:58:06.618045, 146.7825, 4442
17:58:06.618096, 146.785, 4411
17:58:06.619200, 146.7875, 4449
17:58:06.619263, 146.79, 4425
17:58:06.619342, 146.7925, 4354
17:58:06.619377, 146.795, 4399
17:58:06.647192, 146.7975, 4421
17:58:06.647254, 146.8, 4389
17:58:06.647312, 146.8025, 4364
17:58:06.647334, 146.805, 4400
17:58:06.647683, 146.8075, 4376
17:58:06.647708, 146.81, 4285
17:58:06.647723, 146.8125, 4370
17:58:06.647737, 146.815, 4357
17:58:06.650351, 146.8175, 4331
17:58:06.650419, 146.82, 4315
17:58:06.650461, 146.8225, 4317
17:58:06.650501, 146.825, 4315
17:58:06.683959, 146.8275, 4233
17:58:06.684051, 146.83, 4299
17:58:06.684083, 146.8325, 4313
17:58:06.684110, 146.835, 4284
17:58:06.684903, 146.8375, 4277
17:58:06.684966, 146.84, 4284
17:58:06.685009, 146.8425, 4282
17:58:06.685050, 146.845, 4228
17:58:06.686295, 146.8475, 4290
17:58:06.686377, 146.85, 4254
17:58:06.686415, 146.8525, 4249
17:58:06.686447, 146.855, 4257
17:58:06.686503, 146.8575, 4273
17:58:06.687461, 146.86, 4248
17:58:06.687492, 146.8625, 4168
17:58:06.687507, 146.865, 4266
17:58:06.687522, 146.8675, 4268
17:58:06.716415, 146.87, 4246
17:58:06.716473, 146.8725, 4236
17:58:06.716501, 146.875, 4245
17:58:06.716535, 146.8775, 4239
17:58:06.717413, 146.88, 4196
17:58:06.717503, 146.8825, 4204
17:58:06.717559, 146.885, 4207
17:58:06.717611, 146.8875, 4219
17:58:06.721011, 146.89, 4209
17:58:06.721080, 146.8925, 4233
17:58:06.721102, 146.895, 4208
17:58:06.721168, 146.8975, 4110
17:58:06.750690, 146.9, 4199
17:58:06.750784, 146.9025, 4193
17:58:06.750834, 146.905, 4202
17:58:06.750870, 146.9075, 4212
17:58:06.751126, 146.91, 4207
17:58:06.751146, 146.9125, 4231
17:58:06.751160, 146.915, 4148
17:58:06.751174, 146.9175, 4213
17:58:06.751416, 146.92, 4232
17:58:06.751434, 146.9225, 4220
17:58:06.751448, 146.925, 4194
17:58:06.751462, 146.9275, 4228
17:58:06.772083, 146.93, 4210
17:58:06.772176, 146.9325, 4143
17:58:06.772265, 146.935, 4230
17:58:06.772318, 146.9375, 4221
17:58:06.772981, 146.94, 4228
17:58:06.773028, 146.9425, 4209
17:58:06.773052, 146.945, 4217
17:58:06.773074, 146.9475, 4216
17:58:06.781361, 146.95, 4140
17:58:06.781407, 146.9525, 4222
17:58:06.781423, 146.955, 4241
17:58:06.781438, 146.9575, 4235
17:58:06.781452, 146.96, 4237
17:58:06.806137, 146.9625, 4259
17:58:06.806252, 146.965, 4243
17:58:06.806282, 146.9675, 4158
17:58:06.806329, 146.97, 4222
17:58:06.806799, 146.9725, 4233
17:58:06.806839, 146.975, 4206
17:58:06.806899, 146.9775, 4185
17:58:06.806923, 146.98, 4187
17:58:06.807827, 146.9825, 4160
17:58:06.807872, 146.985, 4053
17:58:06.807905, 146.9875, 4160
17:58:06.807935, 146.99, 4171
17:58:06.851918, 146.9925, 4166
17:58:06.851989, 146.995, 4149
17:58:06.852022, 146.9975, 4133
17:58:06.852058, 147.0, 4135
17:58:06.852693, 147.0025, 4109
17:58:06.852745, 147.005, 4107
17:58:06.852787, 147.0075, 4078
17:58:06.852837, 147.01, 4064
17:58:06.854005, 147.0125, 4038
17:58:06.854114, 147.015, 4064
17:58:06.854134, 147.0175, 4079
17:58:06.854154, 147.02, 3997
17:58:06.855305, 147.0225, 4110
17:58:06.855335, 147.025, 4103
17:58:06.855394, 147.0275, 4133
17:58:06.855412, 147.03, 4141
17:58:06.879251, 147.0325, 4137
17:58:06.879336, 147.035, 4129
17:58:06.879462, 147.0375, 4073
17:58:06.879502, 147.04, 4167
17:58:06.879531, 147.0425, 4171
17:58:06.889219, 147.045, 4154
17:58:06.889307, 147.0475, 4166
17:58:06.889336, 147.05, 4153
17:58:06.889369, 147.0525, 4169
17:58:06.913520, 147.055, 4130
17:58:06.913573, 147.0575, 4191
17:58:06.913600, 147.06, 4207
17:58:06.913641, 147.0625, 4213
17:58:06.914108, 147.065, 4197
17:58:06.914151, 147.0675, 4190
17:58:06.914178, 147.07, 4192
17:58:06.914203, 147.0725, 4082
17:58:06.914799, 147.075, 4220
17:58:06.914835, 147.0775, 4217
17:58:06.914914, 147.08, 4194
17:58:06.914960, 147.0825, 4206
17:58:06.919576, 147.085, 4193
17:58:06.919613, 147.0875, 4158
17:58:06.919639, 147.09, 4103
17:58:06.919653, 147.0925, 4173
17:58:06.921980, 147.095, 4160
17:58:06.922074, 147.0975, 4190
17:58:06.922107, 147.1, 4154
17:58:06.922139, 147.1025, 4201
17:58:06.974813, 147.105, 4205
17:58:06.974978, 147.1075, 4122
17:58:06.975046, 147.11, 4189
17:58:06.975085, 147.1125, 4192
17:58:06.975124, 147.115, 4203
17:58:06.975690, 147.1175, 4189
17:58:06.975730, 147.12, 4181
17:58:06.975759, 147.1225, 4162
17:58:06.975786, 147.125, 4096
17:58:06.976271, 147.1275, 4176
17:58:06.976307, 147.13, 4180
17:58:06.976335, 147.1325, 4180
17:58:06.976362, 147.135, 4166
17:58:06.976844, 147.1375, 4156
17:58:06.976880, 147.14, 4144
17:58:06.976908, 147.1425, 4016
17:58:06.976935, 147.145, 4157
17:58:06.977414, 147.1475, 4160
17:58:06.977449, 147.15, 4139
17:58:06.977494, 147.1525, 4133
17:58:06.977525, 147.155, 4174
17:58:07.010555, 147.1575, 4185
17:58:07.010643, 147.16, 4088
17:58:07.010699, 147.1625, 4174
17:58:07.010731, 147.165, 4160
17:58:07.011209, 147.1675, 4151
17:58:07.011241, 147.17, 4148
17:58:07.011263, 147.1725, 4125
17:58:07.011285, 147.175, 4133
17:58:07.011663, 147.1775, 4075
17:58:07.011692, 147.18, 4142
17:58:07.011714, 147.1825, 4156
17:58:07.011736, 147.185, 4143
17:58:07.018031, 147.1875, 4163
17:58:07.018119, 147.19, 4170
17:58:07.018168, 147.1925, 4141
17:58:07.018213, 147.195, 4063
17:58:07.044247, 147.1975, 4148
17:58:07.044403, 147.2, 4151
17:58:07.044471, 147.2025, 4167
17:58:07.044506, 147.205, 4180
17:58:07.045171, 147.2075, 4170
17:58:07.045219, 147.21, 4157
17:58:07.045253, 147.2125, 4087
17:58:07.045284, 147.215, 4182
17:58:07.045840, 147.2175, 4203
17:58:07.045882, 147.22, 4169
17:58:07.045914, 147.2225, 4143
17:58:07.045945, 147.225, 4177
17:58:07.079166, 147.2275, 4171
17:58:07.079253, 147.23, 4085
17:58:07.079293, 147.2325, 4174
17:58:07.079329, 147.235, 4178
17:58:07.079366, 147.2375, 4180
17:58:07.080188, 147.24, 4170
17:58:07.080253, 147.2425, 4174
17:58:07.080297, 147.245, 4153
17:58:07.080339, 147.2475, 4063
17:58:07.081039, 147.25, 4135
17:58:07.081094, 147.2525, 4140
17:58:07.081136, 147.255, 4142
17:58:07.081176, 147.2575, 4167
17:58:07.088965, 147.26, 4177
17:58:07.089120, 147.2625, 4160
17:58:07.089170, 147.265, 4072
17:58:07.089204, 147.2675, 4144
17:58:07.110756, 147.27, 4122
17:58:07.110817, 147.2725, 4154
17:58:07.110869, 147.275, 4144
17:58:07.110906, 147.2775, 4159
17:58:07.111685, 147.28, 4170
17:58:07.111738, 147.2825, 4101
17:58:07.111774, 147.285, 4162
17:58:07.111807, 147.2875, 4159
17:58:07.123572, 147.29, 4166
17:58:07.123633, 147.2925, 4144
17:58:07.123669, 147.295, 4181
17:58:07.123695, 147.2975, 4170
17:58:07.145593, 147.3, 4123
17:58:07.145725, 147.3025, 4159
17:58:07.145810, 147.305, 4156
17:58:07.145872, 147.3075, 4163
17:58:07.146551, 147.31, 4181
17:58:07.146598, 147.3125, 4191
17:58:07.146629, 147.315, 4181
17:58:07.146659, 147.3175, 4119
17:58:07.148614, 147.32, 4171
17:58:07.148637, 147.3225, 4173
17:58:07.148653, 147.325, 4163
17:58:07.148667, 147.3275, 4163
17:58:07.180483, 147.33, 4150
17:58:07.180599, 147.3325, 4146
17:58:07.180648, 147.335, 4089
17:58:07.180687, 147.3375, 4189
17:58:07.181610, 147.34, 4199
17:58:07.181698, 147.3425, 4194
17:58:07.181755, 147.345, 4196
17:58:07.181807, 147.3475, 4176
17:58:07.183589, 147.35, 4191
17:58:07.183613, 147.3525, 4119
17:58:07.183660, 147.355, 4196
17:58:07.183677, 147.3575, 4178
17:58:07.183691, 147.36, 4176
17:58:07.213621, 147.3625, 4177
17:58:07.213735, 147.365, 4192
17:58:07.213854, 147.3675, 4175
17:58:07.213937, 147.37, 4099
17:58:07.214530, 147.3725, 4171
17:58:07.214576, 147.375, 4170
17:58:07.214606, 147.3775, 4172
17:58:07.214634, 147.38, 4165
17:58:07.215367, 147.3825, 4185
17:58:07.215444, 147.385, 4169
17:58:07.215498, 147.3875, 4104
17:58:07.215548, 147.39, 4178
17:58:07.219144, 147.3925, 4185
17:58:07.219168, 147.395, 4192
17:58:07.219183, 147.3975, 4181
17:58:07.219197, 147.4, 4181
17:58:07.244116, 147.4025, 4167
17:58:07.244242, 147.405, 4115
17:58:07.244287, 147.4075, 4168
17:58:07.244322, 147.41, 4136
17:58:07.245119, 147.4125, 4139
17:58:07.245171, 147.415, 4153
17:58:07.245202, 147.4175, 4168
17:58:07.245231, 147.42, 4179
17:58:07.253841, 147.4225, 4121
17:58:07.253888, 147.425, 4171
17:58:07.253919, 147.4275, 4149
17:58:07.253948, 147.43, 4157
17:58:07.282195, 147.4325, 4138
17:58:07.282296, 147.435, 4165
17:58:07.282322, 147.4375, 4170
17:58:07.282344, 147.44, 4082
17:58:07.282643, 147.4425, 4154
17:58:07.282667, 147.445, 4160
17:58:07.282682, 147.4475, 4165
17:58:07.282697, 147.45, 4162
17:58:07.282982, 147.4525, 4184
17:58:07.283004, 147.455, 4164
17:58:07.283019, 147.4575, 4119
17:58:07.283034, 147.46, 4204
17:58:07.289142, 147.4625, 4185
17:58:07.289199, 147.465, 4179
17:58:07.289221, 147.4675, 4181
17:58:07.289238, 147.47, 4192
17:58:07.310723, 147.4725, 4193
17:58:07.310822, 147.475, 4119
17:58:07.310907, 147.4775, 4194
17:58:07.310938, 147.48, 4194
17:58:07.315097, 147.4825, 4164
17:58:07.315122, 147.485, 4181
17:58:07.315139, 147.4875, 4186
17:58:07.315154, 147.49, 4193
17:58:07.315170, 147.4925, 4092
17:58:07.323818, 147.495, 4181
17:58:07.324581, 147.4975, 4172
17:58:07.324622, 147.5, 4170
17:58:07.324644, 147.5025, 4185
17:58:07.345530, 147.505, 4162
17:58:07.345585, 147.5075, 4158
17:58:07.345606, 147.51, 4100
17:58:07.345624, 147.5125, 4170
17:58:07.345983, 147.515, 4153
17:58:07.346004, 147.5175, 4173
17:58:07.346019, 147.52, 4174
17:58:07.346033, 147.5225, 4177
17:58:07.350301, 147.525, 4177
17:58:07.350367, 147.5275, 4098
17:58:07.350411, 147.53, 4158
17:58:07.350451, 147.5325, 4156
17:58:07.374613, 147.535, 4166
17:58:07.374724, 147.5375, 4155
17:58:07.374758, 147.54, 4154
17:58:07.374787, 147.5425, 4168
17:58:07.376419, 147.545, 4133
17:58:07.376491, 147.5475, 4172
17:58:07.376529, 147.55, 4177
17:58:07.376568, 147.5525, 4162
17:58:07.385491, 147.555, 4161
17:58:07.385588, 147.5575, 4161
17:58:07.385645, 147.56, 4182
17:58:07.385696, 147.5625, 4089
17:58:07.408211, 147.565, 4164
17:58:07.408285, 147.5675, 4163
17:58:07.408306, 147.57, 4169
17:58:07.408323, 147.5725, 4167
17:58:07.408721, 147.575, 4184
17:58:07.408754, 147.5775, 4178
17:58:07.408769, 147.58, 4114
17:58:07.408783, 147.5825, 4197
17:58:07.408797, 147.585, 4190
17:58:07.420390, 147.5875, 4179
17:58:07.420480, 147.59, 4191
17:58:07.420522, 147.5925, 4194
17:58:07.420559, 147.595, 4173
17:58:07.441653, 147.5975, 4153
17:58:07.441724, 147.6, 4188
17:58:07.441745, 147.6025, 4173
17:58:07.441763, 147.605, 4174
17:58:07.442156, 147.6075, 4176
17:58:07.442186, 147.61, 4163
17:58:07.442201, 147.6125, 4174
17:58:07.442216, 147.615, 4095
17:58:07.457742, 147.6175, 4193
17:58:07.457888, 147.62, 4186
17:58:07.457920, 147.6225, 4155
17:58:07.457937, 147.625, 4158
17:58:07.458271, 147.6275, 4133
17:58:07.458310, 147.63, 4152
17:58:07.458330, 147.6325, 4068
17:58:07.458349, 147.635, 4168
17:58:07.478349, 147.6375, 4156
17:58:07.478437, 147.64, 4133
17:58:07.478462, 147.6425, 4125
17:58:07.478482, 147.645, 4169
17:58:07.481217, 147.6475, 4160
17:58:07.481242, 147.65, 4090
17:58:07.481257, 147.6525, 4162
17:58:07.481272, 147.655, 4142
17:58:07.491383, 147.6575, 4160
17:58:07.491436, 147.66, 4163
17:58:07.491457, 147.6625, 4187
17:58:07.491475, 147.665, 4187
17:58:07.491493, 147.6675, 4118
17:58:07.514519, 147.67, 4195
17:58:07.514631, 147.6725, 4193
17:58:07.514668, 147.675, 4186
17:58:07.514695, 147.6775, 4166
17:58:07.515119, 147.68, 4173
17:58:07.515179, 147.6825, 4155
17:58:07.515203, 147.685, 4069
17:58:07.515222, 147.6875, 4124
17:58:07.516166, 147.69, 4090
17:58:07.516192, 147.6925, 4071
17:58:07.516211, 147.695, 4066
17:58:07.516230, 147.6975, 4099
17:58:07.543521, 147.7, 4118
17:58:07.543643, 147.7025, 4035
17:58:07.543670, 147.705, 4143
17:58:07.543689, 147.7075, 4143
17:58:07.544025, 147.71, 4156
17:58:07.544056, 147.7125, 4164
17:58:07.544071, 147.715, 4156
17:58:07.544086, 147.7175, 4163
17:58:07.576541, 147.72, 4104
17:58:07.576628, 147.7225, 4196
17:58:07.576652, 147.725, 4202
17:58:07.576672, 147.7275, 4205
17:58:07.577036, 147.73, 4183
17:58:07.577103, 147.7325, 4192
17:58:07.577120, 147.735, 4184
17:58:07.577136, 147.7375, 4091
17:58:07.577151, 147.74, 4181
17:58:07.577424, 147.7425, 4175
17:58:07.577448, 147.745, 4163
17:58:07.577464, 147.7475, 4176
17:58:07.577479, 147.75, 4196
17:58:07.577746, 147.7525, 4203
17:58:07.577767, 147.755, 4120
17:58:07.577783, 147.7575, 4195
17:58:07.577798, 147.76, 4178
17:58:07.612295, 147.7625, 4167
17:58:07.612361, 147.765, 4186
17:58:07.612384, 147.7675, 4187
17:58:07.612404, 147.77, 4202
17:58:07.612747, 147.7725, 4183
17:58:07.612768, 147.775, 4213
17:58:07.612784, 147.7775, 4182
17:58:07.612800, 147.78, 4144
17:58:07.613068, 147.7825, 4168
17:58:07.613088, 147.785, 4204
17:58:07.613104, 147.7875, 4206
17:58:07.613118, 147.79, 4169
17:58:07.645800, 147.7925, 4343
17:58:07.645885, 147.795, 4390
17:58:07.645909, 147.7975, 4419
17:58:07.645927, 147.8, 4459
17:58:07.646224, 147.8025, 4482
17:58:07.646244, 147.805, 4387
17:58:07.646259, 147.8075, 4200
17:58:07.646273, 147.81, 3997
17:58:07.646521, 147.8125, 3767
17:58:07.646540, 147.815, 3430
17:58:07.646554, 147.8175, 3127
17:58:07.646568, 147.82, 2797
17:58:07.656462, 147.8225, 2301
17:58:07.656514, 147.825, 1961
17:58:07.656542, 147.8275, 1872
17:58:07.656568, 147.83, 1982
17:58:07.677570, 147.8325, 2307
17:58:07.677733, 147.835, 2985
17:58:07.677773, 147.8375, 3863
17:58:07.677806, 147.84, 4524
17:58:07.678289, 147.8425, 4778
17:58:07.678330, 147.845, 4963
17:58:07.678354, 147.8475, 4921
17:58:07.678376, 147.85, 4792
17:58:07.678399, 147.8525, 4667
17:58:07.682784, 147.855, 4580
17:58:07.682836, 147.8575, 4562
17:58:07.682903, 147.86, 4458
17:58:07.682934, 147.8625, 4503
17:58:07.692378, 147.865, 4493
17:58:07.692463, 147.8675, 4486
17:58:07.692484, 147.87, 4502
17:58:07.692505, 147.8725, 4529
17:58:07.711873, 147.875, 4488
17:58:07.711962, 147.8775, 4421
17:58:07.711992, 147.88, 4503
17:58:07.712018, 147.8825, 4488
17:58:07.717418, 147.885, 4471
17:58:07.717451, 147.8875, 4454
17:58:07.717472, 147.89, 4452
17:58:07.717491, 147.8925, 4450
17:58:07.717509, 147.895, 4382
17:58:07.726465, 147.8975, 4441
17:58:07.726531, 147.9, 4443
17:58:07.726559, 147.9025, 4414
17:58:07.745985, 147.905, 4399
17:58:07.746037, 147.9075, 4409
17:58:07.746054, 147.91, 4385
17:58:07.746070, 147.9125, 4280
17:58:07.746085, 147.915, 4348
17:58:07.747234, 147.9175, 4341
17:58:07.747269, 147.92, 4351
17:58:07.747292, 147.9225, 4338
17:58:07.747314, 147.925, 4331
17:58:07.752783, 147.9275, 4336
17:58:07.752848, 147.93, 4218
17:58:07.752892, 147.9325, 4363
17:58:07.752933, 147.935, 4347
17:58:07.781802, 147.9375, 4323
17:58:07.781872, 147.94, 4319
17:58:07.781896, 147.9425, 4293
17:58:07.781917, 147.945, 4289
17:58:07.782247, 147.9475, 4255
17:58:07.782272, 147.95, 4271
17:58:07.782287, 147.9525, 4272
17:58:07.782302, 147.955, 4251
17:58:07.788098, 147.9575, 4239
17:58:07.788182, 147.96, 4261
17:58:07.788236, 147.9625, 4252
17:58:07.788287, 147.965, 4183
17:58:07.814376, 147.9675, 4251
17:58:07.814463, 147.97, 4232
17:58:07.814488, 147.9725, 4237
17:58:07.814508, 147.975, 4232
17:58:07.814825, 147.9775, 4236
17:58:07.814872, 147.98, 4238
17:58:07.814890, 147.9825, 4146
17:58:07.814905, 147.985, 4249
17:58:07.822357, 147.9875, 4234
17:58:07.822388, 147.99, 4217
17:58:07.822404, 147.9925, 4221
17:58:07.822419, 147.995, 4219
17:58:07.844603, 147.9975, 4217
17:58:07.844714, 148.0, 4140
17:58:07.844757, 148.0025, 4243
17:58:07.844793, 148.005, 4227
17:58:07.844868, 148.0075, 4223
17:58:07.845371, 148.01, 4196
17:58:07.845450, 148.0125, 4216
17:58:07.845474, 148.015, 4208
17:58:07.845494, 148.0175, 4110
17:58:07.848938, 148.02, 4190
17:58:07.848997, 148.0225, 4207
17:58:07.849033, 148.025, 4181
17:58:07.849066, 148.0275, 4189
17:58:07.857499, 148.03, 4200
17:58:07.857530, 148.0325, 4188
17:58:07.857547, 148.035, 4109
17:58:07.857563, 148.0375, 4205
17:58:07.878075, 148.04, 4197
17:58:07.878174, 148.0425, 4197
17:58:07.878204, 148.045, 4188
17:58:07.878229, 148.0475, 4199
17:58:07.883863, 148.05, 4185
17:58:07.883925, 148.0525, 4118
17:58:07.883956, 148.055, 4176
17:58:07.883986, 148.0575, 4157
17:58:07.910682, 148.06, 4141
17:58:07.910759, 148.0625, 4141
17:58:07.910784, 148.065, 4132
17:58:07.910804, 148.0675, 4130
17:58:07.910825, 148.07, 4049
17:58:07.911272, 148.0725, 4138
17:58:07.911306, 148.075, 4153
17:58:07.911322, 148.0775, 4144
17:58:07.911605, 148.08, 4143
17:58:07.911630, 148.0825, 4140
17:58:07.911646, 148.085, 4128
17:58:07.911662, 148.0875, 4026
17:58:07.911678, 148.09, 4168
17:58:07.919141, 148.0925, 4150
17:58:07.919209, 148.095, 4159
17:58:07.919250, 148.0975, 4155
17:58:07.919289, 148.1, 4165
17:58:07.946959, 148.1025, 4164
17:58:07.947026, 148.105, 4086
17:58:07.947050, 148.1075, 4159
17:58:07.947070, 148.11, 4134
17:58:07.947434, 148.1125, 4130
17:58:07.947457, 148.115, 4111
17:58:07.947473, 148.1175, 4132
17:58:07.947487, 148.12, 4125
17:58:07.953581, 148.1225, 4088
17:58:07.953610, 148.125, 4135
17:58:07.953626, 148.1275, 4151
17:58:07.953640, 148.13, 4151
17:58:07.979302, 148.1325, 4177
17:58:07.979419, 148.135, 4174
17:58:07.979508, 148.1375, 4158
17:58:07.979556, 148.14, 4095
17:58:07.980225, 148.1425, 4152
17:58:07.980277, 148.145, 4160
17:58:07.980301, 148.1475, 4180
17:58:07.980323, 148.15, 4176
17:58:07.980720, 148.1525, 4200
17:58:07.980754, 148.155, 4207
17:58:07.980778, 148.1575, 4147
17:58:07.980800, 148.16, 4219
17:58:07.988579, 148.1625, 4202
17:58:07.988617, 148.165, 4209
17:58:07.988632, 148.1675, 4234
17:58:07.988646, 148.17, 4256
17:58:08.012733, 148.1725, 4241
17:58:08.012871, 148.175, 4160
17:58:08.012916, 148.1775, 4218
17:58:08.012949, 148.18, 4208
17:58:08.015156, 148.1825, 4192
17:58:08.015217, 148.185, 4202
17:58:08.015249, 148.1875, 4208
17:58:08.015279, 148.19, 4232
17:58:08.015308, 148.1925, 4158
17:58:08.023572, 148.195, 4233
17:58:08.023601, 148.1975, 4246
17:58:08.023616, 148.2, 4242
17:58:08.023630, 148.2025, 4234
17:58:08.045913, 148.205, 4206
17:58:08.046019, 148.2075, 4207
17:58:08.046079, 148.21, 4147
17:58:08.046107, 148.2125, 4241
17:58:08.046543, 148.215, 4216
17:58:08.046582, 148.2175, 4204
17:58:08.046603, 148.22, 4208
17:58:08.046622, 148.2225, 4213
17:58:08.058812, 148.225, 4204
17:58:08.058892, 148.2275, 4131
17:58:08.058916, 148.23, 4219
17:58:08.058954, 148.2325, 4229
17:58:08.080709, 148.235, 4217
17:58:08.080768, 148.2375, 4219
17:58:08.080819, 148.24, 4204
17:58:08.080842, 148.2425, 4199
17:58:08.081161, 148.245, 4122
17:58:08.081183, 148.2475, 4221
17:58:08.081199, 148.25, 4207
17:58:08.081214, 148.2525, 4207
17:58:08.085062, 148.255, 4201
17:58:08.085142, 148.2575, 4215
17:58:08.085195, 148.26, 4233
17:58:08.085246, 148.2625, 4148
17:58:08.085296, 148.265, 4246
17:58:08.094674, 148.2675, 4212
17:58:08.094730, 148.27, 4208
17:58:08.094757, 148.2725, 4215
17:58:08.095051, 148.275, 4183
17:58:08.117955, 148.2775, 4186
17:58:08.118018, 148.28, 4132
17:58:08.118041, 148.2825, 4197
17:58:08.118061, 148.285, 4182
17:58:08.119968, 148.2875, 4177
17:58:08.119998, 148.29, 4164
17:58:08.120014, 148.2925, 4172
17:58:08.120029, 148.295, 4163
17:58:08.147777, 148.2975, 4126
17:58:08.147886, 148.3, 4154
17:58:08.147916, 148.3025, 4128
17:58:08.147941, 148.305, 4143
17:58:08.148354, 148.3075, 4131
17:58:08.148381, 148.31, 4154
17:58:08.148401, 148.3125, 4158
17:58:08.148420, 148.315, 4101
17:58:08.148749, 148.3175, 4169
17:58:08.148774, 148.32, 4184
17:58:08.148793, 148.3225, 4173
17:58:08.148811, 148.325, 4190
17:58:08.155100, 148.3275, 4181
17:58:08.155126, 148.33, 4160
17:58:08.155141, 148.3325, 4079
17:58:08.155155, 148.335, 4164
17:58:08.184959, 148.3375, 4173
17:58:08.185041, 148.34, 4173
17:58:08.185064, 148.3425, 4198
17:58:08.185082, 148.345, 4183
17:58:08.185098, 148.3475, 4168
17:58:08.185369, 148.35, 4143
17:58:08.185392, 148.3525, 4201
17:58:08.185407, 148.355, 4188
17:58:08.185422, 148.3575, 4188
17:58:08.190464, 148.36, 4170
17:58:08.190559, 148.3625, 4190
17:58:08.190616, 148.365, 4197
17:58:08.190667, 148.3675, 4114
17:58:08.212693, 148.37, 4176
17:58:08.212769, 148.3725, 4187
17:58:08.212792, 148.375, 4181
17:58:08.212811, 148.3775, 4154
17:58:08.213199, 148.38, 4167
17:58:08.213235, 148.3825, 4165
17:58:08.213250, 148.385, 4100
17:58:08.213265, 148.3875, 4179
17:58:08.216354, 148.39, 4176
17:58:08.216397, 148.3925, 4188
17:58:08.216422, 148.395, 4204
17:58:08.216444, 148.3975, 4189
17:58:08.249164, 148.4, 4174
17:58:08.249224, 148.4025, 4115
17:58:08.249245, 148.405, 4202
17:58:08.249264, 148.4075, 4202
17:58:08.249292, 148.41, 4186
17:58:08.249630, 148.4125, 4195
17:58:08.249656, 148.415, 4209
17:58:08.249670, 148.4175, 4189
17:58:08.249685, 148.42, 4102
17:58:08.251884, 148.4225, 4191
17:58:08.251986, 148.425, 4214
17:58:08.252072, 148.4275, 4197
17:58:08.252147, 148.43, 4186
17:58:08.260754, 148.4325, 4185
17:58:08.260869, 148.435, 4162
17:58:08.260903, 148.4375, 4081
17:58:08.260931, 148.44, 4165
17:58:08.284955, 148.4425, 4204
17:58:08.285025, 148.445, 4212
17:58:08.285049, 148.4475, 4205
17:58:08.285069, 148.45, 4208
17:58:08.286221, 148.4525, 4171
17:58:08.286249, 148.455, 4078
17:58:08.286265, 148.4575, 4137
17:58:08.286280, 148.46, 4148
17:58:08.295306, 148.4625, 4169
17:58:08.295352, 148.465, 4159
17:58:08.295425, 148.4675, 4182
17:58:08.295446, 148.47, 4182
17:58:08.315911, 148.4725, 4131
17:58:08.316007, 148.475, 4172
17:58:08.316041, 148.4775, 4177
17:58:08.316069, 148.48, 4188
17:58:08.316135, 148.4825, 4170
17:58:08.323346, 148.485, 4161
17:58:08.323380, 148.4875, 4169
17:58:08.323398, 148.49, 4094
17:58:08.323413, 148.4925, 4191
17:58:08.324593, 148.495, 4207
17:58:08.324615, 148.4975, 4190
17:58:08.324632, 148.5, 4190
17:58:08.324647, 148.5025, 4202
17:58:08.349182, 148.505, 4172
17:58:08.349275, 148.5075, 4044
17:58:08.349300, 148.51, 4196
17:58:08.349321, 148.5125, 4193
17:58:08.349647, 148.515, 4190
17:58:08.349670, 148.5175, 4181
17:58:08.349685, 148.52, 4204
17:58:08.349701, 148.5225, 4181
17:58:08.356665, 148.525, 4093
17:58:08.356751, 148.5275, 4172
17:58:08.356796, 148.53, 4192
17:58:08.356837, 148.5325, 4171
17:58:08.380411, 148.535, 4162
17:58:08.380506, 148.5375, 4173
17:58:08.380531, 148.54, 4165
17:58:08.380551, 148.5425, 4119
17:58:08.380861, 148.545, 4203
17:58:08.380888, 148.5475, 4191
17:58:08.380903, 148.55, 4173
17:58:08.380918, 148.5525, 4191
17:58:08.391804, 148.555, 4196
17:58:08.391894, 148.5575, 4175
17:58:08.391946, 148.56, 4076
17:58:08.391993, 148.5625, 4127
17:58:08.392037, 148.565, 4126
17:58:08.415874, 148.5675, 4143
17:58:08.415939, 148.57, 4152
17:58:08.415963, 148.5725, 4147
17:58:08.415983, 148.575, 4145
17:58:08.419971, 148.5775, 4087
17:58:08.420074, 148.58, 4181
17:58:08.420129, 148.5825, 4178
17:58:08.420181, 148.585, 4186
17:58:08.421503, 148.5875, 4180
17:58:08.421571, 148.59, 4182
17:58:08.421623, 148.5925, 4166
17:58:08.421673, 148.595, 4077
17:58:08.426955, 148.5975, 4140
17:58:08.427031, 148.6, 4129
17:58:08.427084, 148.6025, 4131
17:58:08.427145, 148.605, 4122
17:58:08.454328, 148.6075, 4170
17:58:08.454402, 148.61, 4171
17:58:08.454457, 148.6125, 4098
17:58:08.454501, 148.615, 4167
17:58:08.455475, 148.6175, 4176
17:58:08.455550, 148.62, 4153
17:58:08.455603, 148.6225, 4157
17:58:08.455650, 148.625, 4185
17:58:08.462484, 148.6275, 4181
17:58:08.462541, 148.63, 4099
17:58:08.462584, 148.6325, 4191
17:58:08.462624, 148.635, 4171
17:58:08.486480, 148.6375, 4168
17:58:08.486551, 148.64, 4177
17:58:08.486576, 148.6425, 4174
17:58:08.486596, 148.645, 4163
17:58:08.486632, 148.6475, 4085
17:58:08.487002, 148.65, 4159
17:58:08.487043, 148.6525, 4162
17:58:08.487094, 148.655, 4159
17:58:08.487120, 148.6575, 4171
17:58:08.487479, 148.66, 4191
17:58:08.487499, 148.6625, 4180
17:58:08.487520, 148.665, 4111
17:58:08.487583, 148.6675, 4180
17:58:08.497950, 148.67, 4157
17:58:08.498034, 148.6725, 4176
17:58:08.498069, 148.675, 4170
17:58:08.498089, 148.6775, 4177
17:58:08.518654, 148.68, 4191
17:58:08.518734, 148.6825, 4084
17:58:08.518757, 148.685, 4190
17:58:08.518777, 148.6875, 4184
17:58:08.523090, 148.69, 4183
17:58:08.523177, 148.6925, 4184
17:58:08.523229, 148.695, 4182
17:58:08.523275, 148.6975, 4159
17:58:08.547856, 148.7, 4108
17:58:08.547964, 148.7025, 4159
17:58:08.548001, 148.705, 4168
17:58:08.548033, 148.7075, 4178
17:58:08.548602, 148.71, 4174
17:58:08.548652, 148.7125, 4168
17:58:08.548677, 148.715, 4188
17:58:08.548700, 148.7175, 4117
17:58:08.549120, 148.72, 4216
17:58:08.549154, 148.7225, 4207
17:58:08.549178, 148.725, 4155
17:58:08.549199, 148.7275, 4143
17:58:08.558401, 148.73, 4135
17:58:08.558513, 148.7325, 4128
17:58:08.558568, 148.735, 4043
17:58:08.558619, 148.7375, 4094
17:58:08.558682, 148.74, 4066
17:58:08.584642, 148.7425, 4080
17:58:08.584715, 148.745, 4122
17:58:08.584740, 148.7475, 4154
17:58:08.584761, 148.75, 4147
17:58:08.585088, 148.7525, 4092
17:58:08.585114, 148.755, 4149
17:58:08.585129, 148.7575, 4157
17:58:08.585143, 148.76, 4162
17:58:08.593121, 148.7625, 4151
17:58:08.593226, 148.765, 4156
17:58:08.593284, 148.7675, 4155
17:58:08.593336, 148.77, 4082
17:58:08.618090, 148.7725, 4174
17:58:08.618151, 148.775, 4196
17:58:08.618173, 148.7775, 4199
17:58:08.618194, 148.78, 4174
17:58:08.618538, 148.7825, 4175
17:58:08.618559, 148.785, 4171
17:58:08.618574, 148.7875, 4120
17:58:08.618587, 148.79, 4183
17:58:08.618831, 148.7925, 4175
17:58:08.618869, 148.795, 4160
17:58:08.618885, 148.7975, 4169
17:58:08.618899, 148.8, 4193
17:58:08.649074, 148.8025, 4176
17:58:08.649156, 148.805, 4084
17:58:08.649226, 148.8075, 4186
17:58:08.649250, 148.81, 4180
17:58:08.649571, 148.8125, 4173
17:58:08.649599, 148.815, 4209
17:58:08.649615, 148.8175, 4188
17:58:08.649630, 148.82, 4178
17:58:08.653816, 148.8225, 4112
17:58:08.653870, 148.825, 4174
17:58:08.653900, 148.8275, 4185
17:58:08.653927, 148.83, 4181
17:58:08.664111, 148.8325, 4234
17:58:08.664170, 148.835, 4320
17:58:08.664193, 148.8375, 4372
17:58:08.664212, 148.84, 4307
17:58:08.664334, 148.8425, 4460
17:58:08.682666, 148.845, 4455
17:58:08.682738, 148.8475, 4412
17:58:08.682761, 148.85, 4251
17:58:08.682780, 148.8525, 4067
17:58:08.683223, 148.855, 3836
17:58:08.683251, 148.8575, 3487
17:58:08.683266, 148.86, 3323
17:58:08.683281, 148.8625, 2909
17:58:08.698326, 148.865, 2454
17:58:08.698392, 148.8675, 2065
17:58:08.698414, 148.87, 1884
17:58:08.698443, 148.8725, 1867
17:58:08.717837, 148.875, 2082
17:58:08.717901, 148.8775, 2585
17:58:08.717926, 148.88, 3452
17:58:08.717949, 148.8825, 4373
17:58:08.718322, 148.885, 4859
17:58:08.718347, 148.8875, 5042
17:58:08.718365, 148.89, 5025
17:58:08.718381, 148.8925, 4822
17:58:08.724214, 148.895, 4785
17:58:08.724304, 148.8975, 4663
17:58:08.724360, 148.9, 4592
17:58:08.724411, 148.9025, 4584
17:58:08.751111, 148.905, 4526
17:58:08.751171, 148.9075, 4498
17:58:08.751226, 148.91, 4401
17:58:08.751252, 148.9125, 4501
17:58:08.751593, 148.915, 4492
17:58:08.751618, 148.9175, 4464
17:58:08.751635, 148.92, 4489
17:58:08.751651, 148.9225, 4471
17:58:08.759385, 148.925, 4479
17:58:08.759480, 148.9275, 4377
17:58:08.759536, 148.93, 4462
17:58:08.759587, 148.9325, 4429
17:58:08.784517, 148.935, 4412
17:58:08.784644, 148.9375, 4388
17:58:08.784680, 148.94, 4390
17:58:08.784711, 148.9425, 4389
17:58:08.784741, 148.945, 4314
17:58:08.785279, 148.9475, 4387
17:58:08.785314, 148.95, 4385
17:58:08.785338, 148.9525, 4375
17:58:08.785361, 148.955, 4335
17:58:08.785763, 148.9575, 4332
17:58:08.785793, 148.96, 4331
17:58:08.785816, 148.9625, 4248
17:58:08.785838, 148.965, 4333
17:58:08.793870, 148.9675, 4325
17:58:08.793927, 148.97, 4327
17:58:08.793961, 148.9725, 4321
17:58:08.793991, 148.975, 4332
17:58:08.817943, 148.9775, 4316
17:58:08.818013, 148.98, 4217
17:58:08.818042, 148.9825, 4300
17:58:08.818067, 148.985, 4281
17:58:08.820036, 148.9875, 4279
17:58:08.820068, 148.99, 4243
17:58:08.820089, 148.9925, 4239
17:58:08.820155, 148.995, 4224
17:58:08.828751, 148.9975, 4179
17:58:08.828796, 149.0, 4213
17:58:08.828824, 149.0025, 4217
17:58:08.828848, 149.005, 4210
17:58:08.849960, 149.0075, 4199
17:58:08.850052, 149.01, 4212
17:58:08.850080, 149.0125, 4212
17:58:08.850103, 149.015, 4136
17:58:08.850680, 149.0175, 4207
17:58:08.850731, 149.02, 4198
17:58:08.850774, 149.0225, 4180
17:58:08.850802, 149.025, 4185
17:58:08.855004, 149.0275, 4222
17:58:08.855046, 149.03, 4212
17:58:08.855071, 149.0325, 4127
17:58:08.855095, 149.035, 4186
17:58:08.855119, 149.0375, 4197
17:58:08.885498, 149.04, 4219
17:58:08.885587, 149.0425, 4192
17:58:08.885648, 149.045, 4215
17:58:08.885706, 149.0475, 4209
17:58:08.886612, 149.05, 4160
17:58:08.886672, 149.0525, 4202
17:58:08.886723, 149.055, 4179
17:58:08.886770, 149.0575, 4168
17:58:08.890415, 149.06, 4192
17:58:08.890486, 149.0625, 4196
17:58:08.890542, 149.065, 4214
17:58:08.890597, 149.0675, 4116
17:58:08.916274, 149.07, 4201
17:58:08.916426, 149.0725, 4205
17:58:08.916471, 149.075, 4209
17:58:08.916520, 149.0775, 4191
17:58:08.917116, 149.08, 4176
17:58:08.917183, 149.0825, 4172
17:58:08.917206, 149.085, 4088
17:58:08.917225, 149.0875, 4172
17:58:08.917571, 149.09, 4178
17:58:08.917601, 149.0925, 4160
17:58:08.917621, 149.095, 4159
17:58:08.917640, 149.0975, 4177
17:58:08.924961, 149.1, 4183
17:58:08.925003, 149.1025, 4088
17:58:08.925018, 149.105, 4148
17:58:08.925033, 149.1075, 4153
17:58:08.953143, 149.11, 4131
17:58:08.953237, 149.1125, 4132
17:58:08.953273, 149.115, 4129
17:58:08.953304, 149.1175, 4129
17:58:08.953672, 149.12, 4094
17:58:08.953701, 149.1225, 4122
17:58:08.953717, 149.125, 4132
17:58:08.953732, 149.1275, 4139
17:58:08.959996, 149.13, 4147
17:58:08.960028, 149.1325, 4156
17:58:08.960045, 149.135, 4165
17:58:08.960059, 149.1375, 4088
17:58:08.985431, 149.14, 4151
17:58:08.985581, 149.1425, 4156
17:58:08.985642, 149.145, 4147
17:58:08.985674, 149.1475, 4128
17:58:08.986191, 149.15, 4122
17:58:08.986238, 149.1525, 4133
17:58:08.986263, 149.155, 4050
17:58:08.986286, 149.1575, 4140
17:58:08.995523, 149.16, 4132
17:58:08.995579, 149.1625, 4127
17:58:08.995610, 149.165, 4109
17:58:08.995640, 149.1675, 4131
17:58:08.995668, 149.17, 4135
17:58:09.016683, 149.1725, 4098
17:58:09.016753, 149.175, 4140
17:58:09.016779, 149.1775, 4153
17:58:09.016801, 149.18, 4158
17:58:09.017207, 149.1825, 4164
17:58:09.017236, 149.185, 4195
17:58:09.017253, 149.1875, 4182
17:58:09.017269, 149.19, 4101
17:58:09.021351, 149.1925, 4187
17:58:09.021401, 149.195, 4198
17:58:09.021424, 149.1975, 4199
17:58:09.021446, 149.2, 4201
17:58:09.030293, 149.2025, 4203
17:58:09.030349, 149.205, 4209
17:58:09.030389, 149.2075, 4144
17:58:09.030426, 149.21, 4249
17:58:09.051051, 149.2125, 4217
17:58:09.051178, 149.215, 4205
17:58:09.051224, 149.2175, 4233
17:58:09.051261, 149.22, 4229
17:58:09.056197, 149.2225, 4202
17:58:09.056234, 149.225, 4121
17:58:09.056249, 149.2275, 4215
17:58:09.056263, 149.23, 4223
17:58:09.065791, 149.2325, 4226
17:58:09.065848, 149.235, 4202
17:58:09.065886, 149.2375, 4205
17:58:09.065931, 149.24, 4215
17:58:09.097855, 149.2425, 4150
17:58:09.097924, 149.245, 4218
17:58:09.097944, 149.2475, 4239
17:58:09.097974, 149.25, 4234
17:58:09.098959, 149.2525, 4228
17:58:09.099029, 149.255, 4202
17:58:09.099053, 149.2575, 4201
17:58:09.099075, 149.26, 4135
17:58:09.099093, 149.2625, 4198
17:58:09.126175, 149.265, 4204
17:58:09.126234, 149.2675, 4195
17:58:09.126260, 149.27, 4197
17:58:09.126279, 149.2725, 4198
17:58:09.127102, 149.275, 4192
17:58:09.127135, 149.2775, 4112
17:58:09.127156, 149.28, 4189
17:58:09.127176, 149.2825, 4153
17:58:09.128575, 149.285, 4160
17:58:09.128600, 149.2875, 4138
17:58:09.128622, 149.29, 4188
17:58:09.128642, 149.2925, 4172
17:58:09.149105, 149.295, 4115
17:58:09.149185, 149.2975, 4164
17:58:09.149212, 149.3, 4143
17:58:09.149234, 149.3025, 4164
17:58:09.149708, 149.305, 4147
17:58:09.149757, 149.3075, 4152
17:58:09.149775, 149.31, 4170
17:58:09.149790, 149.3125, 4107
17:58:09.150044, 149.315, 4197
17:58:09.150066, 149.3175, 4185
17:58:09.150081, 149.32, 4185
17:58:09.150139, 149.3225, 4146
17:58:09.152758, 149.325, 4150
17:58:09.152802, 149.3275, 4166
17:58:09.152824, 149.33, 4071
17:58:09.152844, 149.3325, 4155
17:58:09.177605, 149.335, 4162
17:58:09.177671, 149.3375, 4175
17:58:09.177696, 149.34, 4187
17:58:09.177718, 149.3425, 4159
17:58:09.180031, 149.345, 4165
17:58:09.180062, 149.3475, 4076
17:58:09.180077, 149.35, 4182
17:58:09.180091, 149.3525, 4181
17:58:09.205156, 149.355, 4169
17:58:09.205217, 149.3575, 4184
17:58:09.205239, 149.36, 4213
17:58:09.205256, 149.3625, 4210
17:58:09.205276, 149.365, 4082
17:58:09.206206, 149.3675, 4212
17:58:09.206239, 149.37, 4186
17:58:09.206292, 149.3725, 4168
17:58:09.206385, 149.375, 4156
17:58:09.207482, 149.3775, 4173
17:58:09.207503, 149.38, 4180
17:58:09.207518, 149.3825, 4095
17:58:09.207541, 149.385, 4184
17:58:09.232847, 149.3875, 4181
17:58:09.232909, 149.39, 4182
17:58:09.232933, 149.3925, 4188
17:58:09.232973, 149.395, 4200
17:58:09.233411, 149.3975, 4206
17:58:09.233446, 149.4, 4110
17:58:09.233462, 149.4025, 4200
17:58:09.233477, 149.405, 4211
17:58:09.260259, 149.4075, 4216
17:58:09.260373, 149.41, 4216
17:58:09.260398, 149.4125, 4209
17:58:09.260417, 149.415, 4188
17:58:09.261032, 149.4175, 4118
17:58:09.261065, 149.42, 4206
17:58:09.261085, 149.4225, 4209
17:58:09.261103, 149.425, 4211
17:58:09.262456, 149.4275, 4205
17:58:09.262481, 149.43, 4206
17:58:09.262500, 149.4325, 4179
17:58:09.262518, 149.435, 4095
17:58:09.287493, 149.4375, 4175
17:58:09.287546, 149.44, 4163
17:58:09.287568, 149.4425, 4156
17:58:09.287586, 149.445, 4167
17:58:09.288553, 149.4475, 4172
17:58:09.288583, 149.45, 4162
17:58:09.288601, 149.4525, 4086
17:58:09.288618, 149.455, 4166
17:58:09.288635, 149.4575, 4152
17:58:09.313977, 149.46, 4136
17:58:09.314032, 149.4625, 4126
17:58:09.314054, 149.465, 4134
17:58:09.314085, 149.4675, 4140
17:58:09.314692, 149.47, 4110
17:58:09.314728, 149.4725, 4158
17:58:09.314857, 149.475, 4147
17:58:09.314916, 149.4775, 4129
17:58:09.315760, 149.48, 4130
17:58:09.315794, 149.4825, 4163
17:58:09.315813, 149.485, 4156
17:58:09.315831, 149.4875, 4030
17:58:09.338350, 149.49, 4161
17:58:09.338403, 149.4925, 4154
17:58:09.338425, 149.495, 4143
17:58:09.338445, 149.4975, 4131
17:58:09.339317, 149.5, 4152
17:58:09.339349, 149.5025, 4141
17:58:09.339368, 149.505, 4069
17:58:09.339387, 149.5075, 4177
17:58:09.340391, 149.51, 4177
17:58:09.340417, 149.5125, 4150
17:58:09.340434, 149.515, 4135
17:58:09.340453, 149.5175, 4147
17:58:09.364336, 149.52, 4161
17:58:09.364405, 149.5225, 4045
17:58:09.364436, 149.525, 4151
17:58:09.364464, 149.5275, 4140
17:58:09.364815, 149.53, 4146
17:58:09.364843, 149.5325, 4159
17:58:09.364859, 149.535, 4166
17:58:09.364873, 149.5375, 4153
17:58:09.385073, 149.54, 4066
17:58:09.385193, 149.5425, 4160
17:58:09.385244, 149.545, 4153
17:58:09.385286, 149.5475, 4158
17:58:09.385363, 149.55, 4143
17:58:09.386050, 149.5525, 4171
17:58:09.386112, 149.555, 4167
17:58:09.386145, 149.5575, 4080
17:58:09.386174, 149.56, 4157
17:58:09.390965, 149.5625, 4160
17:58:09.390997, 149.565, 4149
17:58:09.391011, 149.5675, 4177
17:58:09.391025, 149.57, 4174
17:58:09.397442, 149.5725, 4181
17:58:09.397478, 149.575, 4111
17:58:09.397492, 149.5775, 4185
17:58:09.397506, 149.58, 4180
17:58:09.423505, 149.5825, 4145
17:58:09.423622, 149.585, 4150
17:58:09.423672, 149.5875, 4175
17:58:09.423716, 149.59, 4199
17:58:09.435403, 149.5925, 4143
17:58:09.436007, 149.595, 4185
17:58:09.436379, 149.5975, 4171
17:58:09.436438, 149.6, 4161
17:58:09.456456, 149.6025, 4146
17:58:09.456549, 149.605, 4158
17:58:09.456586, 149.6075, 4182
17:58:09.456616, 149.61, 4101
17:58:09.457169, 149.6125, 4176
17:58:09.457204, 149.615, 4172
17:58:09.457229, 149.6175, 4152
17:58:09.457251, 149.62, 4150
17:58:09.457653, 149.6225, 4167
17:58:09.457684, 149.625, 4152
17:58:09.457707, 149.6275, 4075
17:58:09.457730, 149.63, 4191
17:58:09.458707, 149.6325, 4187
17:58:09.458738, 149.635, 4163
17:58:09.458761, 149.6375, 4144
17:58:09.458784, 149.64, 4165
17:58:09.489770, 149.6425, 4146
17:58:09.489865, 149.645, 4078
17:58:09.489900, 149.6475, 4173
17:58:09.489973, 149.65, 4155
17:58:09.490550, 149.6525, 4156
17:58:09.490584, 149.655, 4158
17:58:09.490620, 149.6575, 4151
17:58:09.490642, 149.66, 4146
17:58:09.520445, 149.6625, 4070
17:58:09.520551, 149.665, 4168
17:58:09.520579, 149.6675, 4160
17:58:09.520601, 149.67, 4164
17:58:09.520997, 149.6725, 4166
17:58:09.521025, 149.675, 4171
17:58:09.521041, 149.6775, 4159
17:58:09.521056, 149.68, 4144
17:58:09.521071, 149.6825, 4159
17:58:09.521336, 149.685, 4173
17:58:09.521359, 149.6875, 4166
17:58:09.521375, 149.69, 4147
17:58:09.521389, 149.6925, 4155
17:58:09.521648, 149.695, 4177
17:58:09.521667, 149.6975, 4092
17:58:09.521682, 149.7, 4176
17:58:09.521697, 149.7025, 4176
17:58:09.556877, 149.705, 4170
17:58:09.556967, 149.7075, 4183
17:58:09.557046, 149.71, 4182
17:58:09.557081, 149.7125, 4193
17:58:09.557559, 149.715, 4131
17:58:09.557593, 149.7175, 4185
17:58:09.557616, 149.72, 4190
17:58:09.557638, 149.7225, 4181
17:58:09.558018, 149.725, 4187
17:58:09.558046, 149.7275, 4197
17:58:09.558068, 149.73, 4151
17:58:09.558089, 149.7325, 4040
17:58:09.564322, 149.735, 4161
17:58:09.564406, 149.7375, 4164
17:58:09.564460, 149.74, 4146
17:58:09.564510, 149.7425, 4163
17:58:09.591429, 149.745, 4199
17:58:09.591551, 149.7475, 4170
17:58:09.591601, 149.75, 4100
17:58:09.591656, 149.7525, 4177
17:58:09.591696, 149.755, 4160
17:58:09.592356, 149.7575, 4146
17:58:09.592404, 149.76, 4123
17:58:09.592437, 149.7625, 4152
17:58:09.592469, 149.765, 4173
17:58:09.598988, 149.7675, 4159
17:58:09.599050, 149.77, 4185
17:58:09.599090, 149.7725, 4178
