17:57:00.001919, 80.125, 4170
17:57:00.002005, 80.1275, 4194
17:57:00.002076, 80.13, 4213
17:57:00.002124, 80.1325, 4214
17:57:00.002836, 80.135, 4190
17:57:00.002917, 80.1375, 4222
17:57:00.002957, 80.14, 4222
17:57:00.002992, 80.1425, 4181
17:57:00.003027, 80.145, 4168
17:57:00.003637, 80.1475, 4167
17:57:00.003683, 80.15, 4159
17:57:00.003718, 80.1525, 4130
17:57:00.003752, 80.155, 4185
17:57:00.004351, 80.1575, 4190
17:57:00.004395, 80.16, 4176
17:57:00.004430, 80.1625, 4165
17:57:00.004464, 80.165, 4183
17:57:00.005094, 80.1675, 4175
17:57:00.005139, 80.17, 4166
17:57:00.005173, 80.1725, 4194
17:57:00.005206, 80.175, 4272
17:57:00.012057, 80.1775, 4330
17:57:00.012144, 80.18, 4388
17:57:00.012173, 80.1825, 4404
17:57:00.012200, 80.185, 4421
17:57:00.032925, 80.1875, 4399
17:57:00.033015, 80.19, 4320
17:57:00.033039, 80.1925, 4159
17:57:00.033057, 80.195, 3948
17:57:00.033352, 80.1975, 3725
17:57:00.033372, 80.2, 3440
17:57:00.033387, 80.2025, 3178
17:57:00.033401, 80.205, 2815
17:57:00.064066, 80.2075, 2416
17:57:00.064159, 80.21, 2176
17:57:00.064196, 80.2125, 2024
17:57:00.064224, 80.215, 2179
17:57:00.064658, 80.2175, 2514
17:57:00.064689, 80.22, 3089
17:57:00.064704, 80.2225, 3950
17:57:00.064726, 80.225, 4662
17:57:00.065002, 80.2275, 4899
17:57:00.065025, 80.23, 4921
17:57:00.065039, 80.2325, 4890
17:57:00.065053, 80.235, 4782
17:57:00.065067, 80.2375, 4655
17:57:00.071507, 80.24, 4566
17:57:00.071561, 80.2425, 4538
17:57:00.071592, 80.245, 4475
17:57:00.071620, 80.2475, 4423
17:57:00.100481, 80.25, 4421
17:57:00.100568, 80.2525, 4432
17:57:00.100623, 80.255, 4421
17:57:00.100651, 80.2575, 4412
17:57:00.101198, 80.26, 4437
17:57:00.101235, 80.2625, 4436
17:57:00.101260, 80.265, 4413
17:57:00.101285, 80.2675, 4424
17:57:00.101705, 80.27, 4418
17:57:00.101737, 80.2725, 4419
17:57:00.101761, 80.275, 4297
17:57:00.101785, 80.2775, 4410
17:57:00.134716, 80.28, 4386
17:57:00.134817, 80.2825, 4328
17:57:00.134910, 80.285, 4347
17:57:00.134976, 80.2875, 4350
17:57:00.135718, 80.29, 4329
17:57:00.135769, 80.2925, 4345
17:57:00.135803, 80.295, 4350
17:57:00.135833, 80.2975, 4310
17:57:00.135864, 80.3, 4314
17:57:00.136437, 80.3025, 4336
17:57:00.136480, 80.305, 4310
17:57:00.136512, 80.3075, 4310
17:57:00.136543, 80.31, 4284
17:57:00.141402, 80.3125, 4311
17:57:00.141442, 80.315, 4303
17:57:00.141460, 80.3175, 4281
17:57:00.141475, 80.32, 4275
17:57:00.166360, 80.3225, 4275
17:57:00.166467, 80.325, 4283
17:57:00.166508, 80.3275, 4252
17:57:00.166546, 80.33, 4282
17:57:00.167404, 80.3325, 4266
17:57:00.167467, 80.335, 4244
17:57:00.167503, 80.3375, 4248
17:57:00.167538, 80.34, 4224
17:57:00.176276, 80.3425, 4233
17:57:00.176311, 80.345, 4132
17:57:00.176326, 80.3475, 4237
17:57:00.176340, 80.35, 4226
17:57:00.198108, 80.3525, 4209
17:57:00.198181, 80.355, 4218
17:57:00.198203, 80.3575, 4199
17:57:00.198225, 80.36, 4226
17:57:00.205182, 80.3625, 4198
17:57:00.205264, 80.365, 4202
17:57:00.205300, 80.3675, 4216
17:57:00.205333, 80.37, 4209
17:57:00.206315, 80.3725, 4207
17:57:00.206360, 80.375, 4209
17:57:00.206393, 80.3775, 4200
17:57:00.206424, 80.38, 4185
17:57:00.206455, 80.3825, 4202
17:57:00.212385, 80.385, 4193
17:57:00.212420, 80.3875, 4163
17:57:00.212440, 80.39, 4158
17:57:00.212480, 80.3925, 4179
17:57:00.231762, 80.395, 4202
17:57:00.231890, 80.3975, 4164
17:57:00.231952, 80.4, 4196
17:57:00.231987, 80.4025, 4171
17:57:00.237649, 80.405, 4151
17:57:00.237683, 80.4075, 4188
17:57:00.237699, 80.41, 4171
17:57:00.237713, 80.4125, 4153
17:57:00.246981, 80.415, 4114
17:57:00.247055, 80.4175, 4153
17:57:00.247083, 80.42, 4143
17:57:00.247111, 80.4225, 4127
17:57:00.266250, 80.425, 4147
17:57:00.266338, 80.4275, 4148
17:57:00.266381, 80.43, 4162
17:57:00.266416, 80.4325, 4137
17:57:00.267148, 80.435, 4162
17:57:00.267198, 80.4375, 4143
17:57:00.267232, 80.44, 4130
17:57:00.267263, 80.4425, 4133
17:57:00.267294, 80.445, 4113
17:57:00.272633, 80.4475, 4119
17:57:00.272658, 80.45, 4112
17:57:00.272673, 80.4525, 4135
17:57:00.272687, 80.455, 4133
17:57:00.301874, 80.4575, 4115
17:57:00.301960, 80.46, 4128
17:57:00.301998, 80.4625, 4128
17:57:00.302031, 80.465, 4145
17:57:00.302587, 80.4675, 4128
17:57:00.302624, 80.47, 4143
17:57:00.302651, 80.4725, 4120
17:57:00.302676, 80.475, 4110
17:57:00.307651, 80.4775, 4161
17:57:00.307687, 80.48, 4156
17:57:00.307703, 80.4825, 4138
17:57:00.307718, 80.485, 4111
17:57:00.332360, 80.4875, 4128
17:57:00.332498, 80.49, 4106
17:57:00.332558, 80.4925, 4098
17:57:00.332600, 80.495, 4114
17:57:00.333232, 80.4975, 4132
17:57:00.333277, 80.5, 4138
17:57:00.333301, 80.5025, 4101
17:57:00.333322, 80.505, 4148
17:57:00.343159, 80.5075, 4160
17:57:00.343202, 80.51, 4153
17:57:00.343218, 80.5125, 4160
17:57:00.343232, 80.515, 4164
17:57:00.364837, 80.5175, 4175
17:57:00.364900, 80.52, 4181
17:57:00.364921, 80.5225, 4208
17:57:00.364940, 80.525, 4226
17:57:00.364960, 80.5275, 4247
17:57:00.365376, 80.53, 4224
17:57:00.365416, 80.5325, 4245
17:57:00.365431, 80.535, 4241
17:57:00.365446, 80.5375, 4254
17:57:00.369691, 80.54, 4284
17:57:00.369763, 80.5425, 4287
17:57:00.369795, 80.545, 4301
17:57:00.369824, 80.5475, 4284
17:57:00.378109, 80.55, 4276
17:57:00.378187, 80.5525, 4264
17:57:00.378265, 80.555, 4258
17:57:00.378347, 80.5575, 4278
17:57:00.398545, 80.56, 4256
17:57:00.398681, 80.5625, 4243
17:57:00.398721, 80.565, 4250
17:57:00.398754, 80.5675, 4302
17:57:00.415346, 80.57, 4309
17:57:00.415412, 80.5725, 4273
17:57:00.415435, 80.575, 4264
17:57:00.415454, 80.5775, 4255
17:57:00.433716, 80.58, 4238
17:57:00.433818, 80.5825, 4253
17:57:00.433865, 80.585, 4261
17:57:00.433928, 80.5875, 4252
17:57:00.434451, 80.59, 4228
17:57:00.434487, 80.5925, 4264
17:57:00.434508, 80.595, 4257
17:57:00.434528, 80.5975, 4232
17:57:00.434965, 80.6, 4244
17:57:00.435012, 80.6025, 4219
17:57:00.435045, 80.605, 4228
17:57:00.435076, 80.6075, 4177
17:57:00.439036, 80.61, 4240
17:57:00.439060, 80.6125, 4220
17:57:00.439075, 80.615, 4220
17:57:00.439091, 80.6175, 4212
17:57:00.466328, 80.62, 4217
17:57:00.466418, 80.6225, 4202
17:57:00.466449, 80.625, 4182
17:57:00.466603, 80.6275, 4215
17:57:00.466646, 80.63, 4194
17:57:00.467031, 80.6325, 4187
17:57:00.467073, 80.635, 4219
17:57:00.467097, 80.6375, 4211
17:57:00.467118, 80.64, 4198
17:57:00.474097, 80.6425, 4179
17:57:00.474152, 80.645, 4179
17:57:00.474189, 80.6475, 4169
17:57:00.474222, 80.65, 4179
17:57:00.500895, 80.6525, 4200
17:57:00.500987, 80.655, 4199
17:57:00.501022, 80.6575, 4194
17:57:00.501053, 80.66, 4183
17:57:00.501592, 80.6625, 4192
17:57:00.501625, 80.665, 4186
17:57:00.501649, 80.6675, 4172
17:57:00.501671, 80.67, 4188
17:57:00.502077, 80.6725, 4173
17:57:00.502108, 80.675, 4168
17:57:00.502131, 80.6775, 4147
17:57:00.502153, 80.68, 4197
17:57:00.509104, 80.6825, 4183
17:57:00.509170, 80.685, 4189
17:57:00.509207, 80.6875, 4210
17:57:00.509240, 80.69, 4215
17:57:00.532110, 80.6925, 4208
17:57:00.532214, 80.695, 4163
17:57:00.532264, 80.6975, 4163
17:57:00.532294, 80.7, 4175
17:57:00.532356, 80.7025, 4176
17:57:00.535206, 80.705, 4197
17:57:00.535245, 80.7075, 4179
17:57:00.535261, 80.71, 4175
17:57:00.569788, 80.7125, 4144
17:57:00.569868, 80.715, 4174
17:57:00.569897, 80.7175, 4189
17:57:00.569926, 80.72, 4180
17:57:00.570421, 80.7225, 4175
17:57:00.570451, 80.725, 4185
17:57:00.570474, 80.7275, 4173
17:57:00.570496, 80.73, 4165
17:57:00.570909, 80.7325, 4189
17:57:00.570940, 80.735, 4169
17:57:00.570962, 80.7375, 4145
17:57:00.570991, 80.74, 4182
17:57:00.571005, 80.7425, 4190
17:57:00.571247, 80.745, 4173
17:57:00.571265, 80.7475, 4152
17:57:00.571279, 80.75, 4161
17:57:00.571293, 80.7525, 4174
17:57:00.605012, 80.755, 4156
17:57:00.605132, 80.7575, 4175
17:57:00.605174, 80.76, 4180
17:57:00.605205, 80.7625, 4172
17:57:00.605811, 80.765, 4172
17:57:00.605853, 80.7675, 4190
17:57:00.605881, 80.77, 4187
17:57:00.605908, 80.7725, 4156
17:57:00.606434, 80.775, 4167
17:57:00.606473, 80.7775, 4155
17:57:00.606501, 80.78, 4179
17:57:00.606547, 80.7825, 4178
17:57:00.614264, 80.785, 4196
17:57:00.614317, 80.7875, 4198
17:57:00.614402, 80.79, 4159
17:57:00.614453, 80.7925, 4194
17:57:00.632975, 80.795, 4202
17:57:00.633085, 80.7975, 4188
17:57:00.633118, 80.8, 4150
17:57:00.633169, 80.8025, 4183
17:57:00.633762, 80.805, 4158
17:57:00.633810, 80.8075, 4156
17:57:00.633832, 80.81, 4164
17:57:00.633853, 80.8125, 4152
17:57:00.649144, 80.815, 4150
17:57:00.649200, 80.8175, 4110
17:57:00.649224, 80.82, 4150
17:57:00.649245, 80.8225, 4153
17:57:00.665786, 80.825, 4161
17:57:00.665860, 80.8275, 4161
17:57:00.665882, 80.83, 4162
17:57:00.665901, 80.8325, 4148
17:57:00.666424, 80.835, 4138
17:57:00.666466, 80.8375, 4164
17:57:00.666484, 80.84, 4164
17:57:00.666500, 80.8425, 4140
17:57:00.666516, 80.845, 4167
17:57:00.676176, 80.8475, 4184
17:57:00.676297, 80.85, 4190
17:57:00.676353, 80.8525, 4148
17:57:00.676405, 80.855, 4177
17:57:00.699393, 80.8575, 4181
17:57:00.699593, 80.86, 4179
17:57:00.699635, 80.8625, 4162
17:57:00.699656, 80.865, 4152
17:57:00.701497, 80.8675, 4125
17:57:00.701536, 80.87, 4115
17:57:00.701551, 80.8725, 4160
17:57:00.701567, 80.875, 4152
17:57:00.710556, 80.8775, 4158
17:57:00.710646, 80.88, 4167
17:57:00.710696, 80.8825, 4162
17:57:00.710742, 80.885, 4157
17:57:00.736935, 80.8875, 4145
17:57:00.737038, 80.89, 4171
17:57:00.737071, 80.8925, 4184
17:57:00.737110, 80.895, 4176
17:57:00.737751, 80.8975, 4131
17:57:00.737797, 80.9, 4147
17:57:00.737828, 80.9025, 4163
17:57:00.737851, 80.905, 4123
17:57:00.738239, 80.9075, 4179
17:57:00.738267, 80.91, 4163
17:57:00.738289, 80.9125, 4164
17:57:00.738310, 80.915, 4167
17:57:00.745642, 80.9175, 4147
17:57:00.745757, 80.92, 4166
17:57:00.745811, 80.9225, 4163
17:57:00.745858, 80.925, 4197
17:57:00.770763, 80.9275, 4194
17:57:00.770855, 80.93, 4173
17:57:00.770900, 80.9325, 4201
17:57:00.770957, 80.935, 4190
17:57:00.771670, 80.9375, 4185
17:57:00.771714, 80.94, 4164
17:57:00.771744, 80.9425, 4183
17:57:00.771773, 80.945, 4179
17:57:00.771801, 80.9475, 4164
17:57:00.780310, 80.95, 4212
17:57:00.780366, 80.9525, 4206
17:57:00.780397, 80.955, 4183
17:57:00.780426, 80.9575, 4135
17:57:00.805163, 80.96, 4172
17:57:00.805313, 80.9625, 4174
17:57:00.805365, 80.965, 4150
17:57:00.805444, 80.9675, 4167
17:57:00.805992, 80.97, 4178
17:57:00.806033, 80.9725, 4171
17:57:00.806063, 80.975, 4161
17:57:00.806092, 80.9775, 4204
17:57:00.806623, 80.98, 4163
17:57:00.806661, 80.9825, 4157
17:57:00.806691, 80.985, 4167
17:57:00.806720, 80.9875, 4165
17:57:00.833543, 80.99, 4124
17:57:00.833636, 80.9925, 4119
17:57:00.833663, 80.995, 4161
17:57:00.833683, 80.9975, 4169
17:57:00.834127, 81.0, 4165
17:57:00.834164, 81.0025, 4186
17:57:00.834181, 81.005, 4163
17:57:00.834202, 81.0075, 4144
17:57:00.841889, 81.01, 4126
17:57:00.841979, 81.0125, 4168
17:57:00.842021, 81.015, 4166
17:57:00.842060, 81.0175, 4155
17:57:00.866822, 81.02, 4175
17:57:00.866909, 81.0225, 4189
17:57:00.866932, 81.025, 4191
17:57:00.866950, 81.0275, 4139
17:57:00.867347, 81.03, 4169
17:57:00.867372, 81.0325, 4171
17:57:00.867386, 81.035, 4172
17:57:00.867400, 81.0375, 4169
17:57:00.867414, 81.04, 4184
17:57:00.867670, 81.0425, 4168
17:57:00.867703, 81.045, 4148
17:57:00.867718, 81.0475, 4173
17:57:00.867732, 81.05, 4167
17:57:00.901509, 81.0525, 4136
17:57:00.901630, 81.055, 4170
17:57:00.901662, 81.0575, 4152
17:57:00.901736, 81.06, 4159
17:57:00.902317, 81.0625, 4148
17:57:00.902445, 81.065, 4179
17:57:00.902472, 81.0675, 4181
17:57:00.902493, 81.07, 4178
17:57:00.902861, 81.0725, 4186
17:57:00.902909, 81.075, 4193
17:57:00.902943, 81.0775, 4187
17:57:00.902972, 81.08, 4164
17:57:00.911777, 81.0825, 4179
17:57:00.911845, 81.085, 4151
17:57:00.911885, 81.0875, 4156
17:57:00.911922, 81.09, 4186
17:57:00.937584, 81.0925, 4179
17:57:00.937692, 81.095, 4188
17:57:00.937734, 81.0975, 4174
17:57:00.937767, 81.1, 4202
17:57:00.938355, 81.1025, 4190
17:57:00.938392, 81.105, 4165
17:57:00.938418, 81.1075, 4188
17:57:00.938442, 81.11, 4171
17:57:00.946290, 81.1125, 4160
17:57:00.946331, 81.115, 4117
17:57:00.946348, 81.1175, 4159
17:57:00.946363, 81.12, 4163
17:57:00.946378, 81.1225, 4168
17:57:00.970395, 81.125, 4161
17:57:00.970524, 81.1275, 4153
17:57:00.970587, 81.13, 4147
17:57:00.970622, 81.1325, 4114
17:57:00.971507, 81.135, 4119
17:57:00.971582, 81.1375, 4084
17:57:00.971629, 81.14, 4076
17:57:00.971673, 81.1425, 4091
17:57:00.973171, 81.145, 4109
17:57:00.973237, 81.1475, 4091
17:57:00.973283, 81.15, 4002
17:57:00.973329, 81.1525, 4133
17:57:00.981394, 81.155, 4156
17:57:00.981475, 81.1575, 4129
17:57:00.981495, 81.16, 4166
17:57:00.981557, 81.1625, 4181
17:57:01.002067, 81.165, 4180
17:57:01.002178, 81.1675, 4170
17:57:01.002214, 81.17, 4187
17:57:01.002245, 81.1725, 4200
17:57:01.008163, 81.175, 4199
17:57:01.008258, 81.1775, 4197
17:57:01.008304, 81.18, 4188
17:57:01.008345, 81.1825, 4180
17:57:01.017222, 81.185, 4162
17:57:01.017375, 81.1875, 4170
17:57:01.017399, 81.19, 4178
17:57:01.017450, 81.1925, 4199
17:57:01.035332, 81.195, 4217
17:57:01.035481, 81.1975, 4212
17:57:01.035535, 81.2, 4201
17:57:01.035590, 81.2025, 4164
17:57:01.036614, 81.205, 4200
17:57:01.036695, 81.2075, 4203
17:57:01.036729, 81.21, 4195
17:57:01.036767, 81.2125, 4235
17:57:01.036806, 81.215, 4242
17:57:01.042728, 81.2175, 4222
17:57:01.042768, 81.22, 4193
17:57:01.042788, 81.2225, 4195
17:57:01.042807, 81.225, 4185
17:57:01.071571, 81.2275, 4167
17:57:01.071702, 81.23, 4180
17:57:01.071761, 81.2325, 4185
17:57:01.071844, 81.235, 4176
17:57:01.072599, 81.2375, 4169
17:57:01.072651, 81.24, 4211
17:57:01.072695, 81.2425, 4286
17:57:01.072737, 81.245, 4334
17:57:01.077787, 81.2475, 4394
17:57:01.077822, 81.25, 4432
17:57:01.077850, 81.2525, 4484
17:57:01.077874, 81.255, 4457
17:57:01.103860, 81.2575, 4384
17:57:01.103995, 81.26, 4218
17:57:01.104045, 81.2625, 3992
17:57:01.104094, 81.265, 3765
17:57:01.104882, 81.2675, 3459
17:57:01.104947, 81.27, 3136
17:57:01.104987, 81.2725, 2738
17:57:01.105024, 81.275, 2270
17:57:01.105656, 81.2775, 1993
17:57:01.105702, 81.28, 1964
17:57:01.105742, 81.2825, 2057
17:57:01.105778, 81.285, 2481
17:57:01.137058, 81.2875, 3200
17:57:01.137165, 81.29, 3972
17:57:01.137217, 81.2925, 4583
17:57:01.137258, 81.295, 4848
17:57:01.137711, 81.2975, 4853
17:57:01.137748, 81.3, 4772
17:57:01.137768, 81.3025, 4654
17:57:01.137816, 81.305, 4579
17:57:01.138828, 81.3075, 4523
17:57:01.138909, 81.31, 4531
17:57:01.138969, 81.3125, 4520
17:57:01.139020, 81.315, 4473
17:57:01.147617, 81.3175, 4486
17:57:01.147644, 81.32, 4485
17:57:01.147660, 81.3225, 4484
17:57:01.147675, 81.325, 4458
17:57:01.147689, 81.3275, 4486
17:57:01.170114, 81.33, 4482
17:57:01.170197, 81.3325, 4472
17:57:01.170222, 81.335, 4475
17:57:01.170243, 81.3375, 4484
17:57:01.170602, 81.34, 4466
17:57:01.170631, 81.3425, 4415
17:57:01.170647, 81.345, 4452
17:57:01.170661, 81.3475, 4446
17:57:01.183836, 81.35, 4406
17:57:01.183883, 81.3525, 4423
17:57:01.183919, 81.355, 4428
17:57:01.183938, 81.3575, 4404
17:57:01.206263, 81.36, 4372
17:57:01.206371, 81.3625, 4388
17:57:01.206442, 81.365, 4380
17:57:01.206514, 81.3675, 4341
17:57:01.207187, 81.37, 4336
17:57:01.207222, 81.3725, 4353
17:57:01.207251, 81.375, 4321
17:57:01.207280, 81.3775, 4308
17:57:01.208944, 81.38, 4321
17:57:01.208982, 81.3825, 4329
17:57:01.209011, 81.385, 4293
17:57:01.209040, 81.3875, 4321
17:57:01.236411, 81.39, 4318
17:57:01.236478, 81.3925, 4307
17:57:01.236501, 81.395, 4279
17:57:01.236521, 81.3975, 4304
17:57:01.236961, 81.4, 4261
17:57:01.236992, 81.4025, 4255
17:57:01.237008, 81.405, 4283
17:57:01.237023, 81.4075, 4281
17:57:01.243916, 81.41, 4261
17:57:01.243961, 81.4125, 4251
17:57:01.243987, 81.415, 4277
17:57:01.244010, 81.4175, 4248
17:57:01.244033, 81.42, 4230
17:57:01.270526, 81.4225, 4239
17:57:01.270651, 81.425, 4231
17:57:01.270685, 81.4275, 4226
17:57:01.270727, 81.43, 4201
17:57:01.271341, 81.4325, 4231
17:57:01.271400, 81.435, 4258
17:57:01.271427, 81.4375, 4219
17:57:01.271450, 81.44, 4189
17:57:01.271823, 81.4425, 4215
17:57:01.271852, 81.445, 4173
17:57:01.271873, 81.4475, 4166
17:57:01.271897, 81.45, 4203
17:57:01.279082, 81.4525, 4203
17:57:01.279126, 81.455, 4185
17:57:01.279151, 81.4575, 4213
17:57:01.279174, 81.46, 4205
17:57:01.303238, 81.4625, 4211
17:57:01.303332, 81.465, 4177
17:57:01.303366, 81.4675, 4209
17:57:01.303407, 81.47, 4203
17:57:01.305132, 81.4725, 4180
17:57:01.305177, 81.475, 4176
17:57:01.305199, 81.4775, 4186
17:57:01.305219, 81.48, 4176
17:57:01.314407, 81.4825, 4139
17:57:01.314496, 81.485, 4164
17:57:01.314550, 81.4875, 4179
17:57:01.314602, 81.49, 4158
17:57:01.336068, 81.4925, 4184
17:57:01.336169, 81.495, 4188
17:57:01.336194, 81.4975, 4192
17:57:01.336213, 81.5, 4176
17:57:01.336563, 81.5025, 4220
17:57:01.336593, 81.505, 4198
17:57:01.336609, 81.5075, 4205
17:57:01.336623, 81.51, 4210
17:57:01.336637, 81.5125, 4203
17:57:01.340284, 81.515, 4191
17:57:01.340344, 81.5175, 4167
17:57:01.340371, 81.52, 4184
17:57:01.340407, 81.5225, 4183
17:57:01.372636, 81.525, 4180
17:57:01.372712, 81.5275, 4173
17:57:01.372735, 81.53, 4189
17:57:01.372766, 81.5325, 4163
17:57:01.373134, 81.535, 4118
17:57:01.373158, 81.5375, 4143
17:57:01.373174, 81.54, 4156
17:57:01.373190, 81.5425, 4156
17:57:01.375323, 81.545, 4147
17:57:01.375378, 81.5475, 4144
17:57:01.375410, 81.55, 4147
17:57:01.375441, 81.5525, 4021
17:57:01.384582, 81.555, 4141
17:57:01.384629, 81.5575, 4138
17:57:01.384649, 81.56, 4103
17:57:01.384668, 81.5625, 4116
17:57:01.408478, 81.565, 4117
17:57:01.408556, 81.5675, 4109
17:57:01.408589, 81.57, 4085
17:57:01.408617, 81.5725, 4120
17:57:01.411158, 81.575, 4127
17:57:01.411224, 81.5775, 4118
17:57:01.411278, 81.58, 4136
17:57:01.411330, 81.5825, 4138
17:57:01.419987, 81.585, 4137
17:57:01.420072, 81.5875, 4106
17:57:01.420108, 81.59, 4120
17:57:01.420142, 81.5925, 4146
17:57:01.420236, 81.595, 4121
17:57:01.440891, 81.5975, 4160
17:57:01.440973, 81.6, 4184
17:57:01.440997, 81.6025, 4169
17:57:01.441298, 81.605, 4182
17:57:01.441324, 81.6075, 4215
17:57:01.441340, 81.61, 4183
17:57:01.441354, 81.6125, 4171
17:57:01.441368, 81.615, 4225
17:57:01.445828, 81.6175, 4209
17:57:01.445925, 81.62, 4195
17:57:01.445980, 81.6225, 4184
17:57:01.446032, 81.625, 4212
17:57:01.454712, 81.6275, 4204
17:57:01.454783, 81.63, 4205
17:57:01.454815, 81.6325, 4194
17:57:01.454872, 81.635, 4171
17:57:01.473515, 81.6375, 4182
17:57:01.473602, 81.64, 4158
17:57:01.473637, 81.6425, 4210
17:57:01.473702, 81.645, 4215
17:57:01.480836, 81.6475, 4193
17:57:01.480925, 81.65, 4177
17:57:01.480982, 81.6525, 4169
17:57:01.481034, 81.655, 4167
17:57:01.504004, 81.6575, 4146
17:57:01.504106, 81.66, 4172
17:57:01.504132, 81.6625, 4161
17:57:01.504153, 81.665, 4159
17:57:01.504526, 81.6675, 4183
17:57:01.504559, 81.67, 4185
17:57:01.504575, 81.6725, 4193
17:57:01.504590, 81.675, 4154
17:57:01.506530, 81.6775, 4161
17:57:01.506563, 81.68, 4174
17:57:01.506579, 81.6825, 4172
17:57:01.506594, 81.685, 4179
17:57:01.515630, 81.6875, 4194
17:57:01.515703, 81.69, 4188
17:57:01.515765, 81.6925, 4163
17:57:01.515838, 81.695, 4212
17:57:01.542527, 81.6975, 4190
17:57:01.542589, 81.7, 4159
17:57:01.542619, 81.7025, 4170
17:57:01.542644, 81.705, 4183
17:57:01.542702, 81.7075, 4155
17:57:01.543117, 81.71, 4151
17:57:01.543147, 81.7125, 4172
17:57:01.543166, 81.715, 4185
17:57:01.543185, 81.7175, 4158
17:57:01.550633, 81.72, 4156
17:57:01.550720, 81.7225, 4161
17:57:01.550775, 81.725, 4165
17:57:01.550827, 81.7275, 4132
17:57:01.574104, 81.73, 4153
17:57:01.574175, 81.7325, 4152
17:57:01.574200, 81.735, 4157
17:57:01.574250, 81.7375, 4183
17:57:01.574590, 81.74, 4187
17:57:01.574614, 81.7425, 4187
17:57:01.574630, 81.745, 4161
17:57:01.574645, 81.7475, 4219
17:57:01.586747, 81.75, 4183
17:57:01.586799, 81.7525, 4175
17:57:01.586827, 81.755, 4180
17:57:01.586859, 81.7575, 4195
17:57:01.610507, 81.76, 4169
17:57:01.610631, 81.7625, 4166
17:57:01.610686, 81.765, 4166
17:57:01.610727, 81.7675, 4169
17:57:01.610765, 81.77, 4163
17:57:01.611571, 81.7725, 4171
17:57:01.611654, 81.775, 4172
17:57:01.611709, 81.7775, 4177
17:57:01.611760, 81.78, 4154
17:57:01.612674, 81.7825, 4202
17:57:01.612743, 81.785, 4176
17:57:01.612794, 81.7875, 4166
17:57:01.612844, 81.79, 4200
17:57:01.621045, 81.7925, 4219
17:57:01.621121, 81.795, 4191
17:57:01.621150, 81.7975, 4161
17:57:01.621176, 81.8, 4173
17:57:01.644113, 81.8025, 4154
17:57:01.644176, 81.805, 4170
17:57:01.644207, 81.8075, 4182
17:57:01.644236, 81.81, 4170
17:57:01.646413, 81.8125, 4160
17:57:01.646449, 81.815, 4120
17:57:01.646466, 81.8175, 4162
17:57:01.646481, 81.82, 4156
17:57:01.646497, 81.8225, 4149
17:57:01.676111, 81.825, 4164
17:57:01.676262, 81.8275, 4145
17:57:01.676314, 81.83, 4167
17:57:01.676352, 81.8325, 4118
17:57:01.676940, 81.835, 4169
17:57:01.677019, 81.8375, 4167
17:57:01.677068, 81.84, 4177
17:57:01.677113, 81.8425, 4185
17:57:01.677866, 81.845, 4168
17:57:01.677903, 81.8475, 4173
17:57:01.677929, 81.85, 4166
17:57:01.677954, 81.8525, 4193
17:57:01.681911, 81.855, 4197
17:57:01.681983, 81.8575, 4158
17:57:01.682031, 81.86, 4164
17:57:01.682076, 81.8625, 4168
17:57:01.708874, 81.865, 4144
17:57:01.708942, 81.8675, 4145
17:57:01.708967, 81.87, 4177
17:57:01.708990, 81.8725, 4180
17:57:01.709370, 81.875, 4168
17:57:01.709394, 81.8775, 4167
17:57:01.709410, 81.88, 4173
17:57:01.709425, 81.8825, 4189
17:57:01.717010, 81.885, 4150
17:57:01.717104, 81.8875, 4186
17:57:01.717159, 81.89, 4186
17:57:01.717210, 81.8925, 4172
17:57:01.740165, 81.895, 4178
17:57:01.740246, 81.8975, 4187
17:57:01.740273, 81.9, 4165
17:57:01.740320, 81.9025, 4145
17:57:01.740346, 81.905, 4169
17:57:01.740793, 81.9075, 4146
17:57:01.740830, 81.91, 4140
17:57:01.740850, 81.9125, 4163
17:57:01.740869, 81.915, 4147
17:57:01.751386, 81.9175, 4159
17:57:01.751413, 81.92, 4124
17:57:01.751428, 81.9225, 4146
17:57:01.751442, 81.925, 4126
17:57:01.772210, 81.9275, 4135
17:57:01.772360, 81.93, 4159
17:57:01.772400, 81.9325, 4156
17:57:01.772438, 81.935, 4165
17:57:01.773008, 81.9375, 4106
17:57:01.773060, 81.94, 4155
17:57:01.773087, 81.9425, 4169
17:57:01.773112, 81.945, 4142
17:57:01.777990, 81.9475, 4152
17:57:01.778058, 81.95, 4158
17:57:01.778096, 81.9525, 4158
17:57:01.778129, 81.955, 4135
17:57:01.786785, 81.9575, 4166
17:57:01.786827, 81.96, 4161
17:57:01.786858, 81.9625, 4145
17:57:01.786878, 81.965, 4177
17:57:01.805102, 81.9675, 4161
17:57:01.805226, 81.97, 4158
17:57:01.805262, 81.9725, 4127
17:57:01.805293, 81.975, 4159
17:57:01.813343, 81.9775, 4163
17:57:01.813455, 81.98, 4150
17:57:01.813577, 81.9825, 4189
17:57:01.813636, 81.985, 4166
17:57:01.813689, 81.9875, 4159
17:57:01.821875, 81.99, 4145
17:57:01.821920, 81.9925, 4161
17:57:01.821939, 81.995, 4160
17:57:01.821960, 81.9975, 4152
17:57:01.841751, 82.0, 4155
17:57:01.841804, 82.0025, 4165
17:57:01.841823, 82.005, 4168
17:57:01.841838, 82.0075, 4131
17:57:01.842259, 82.01, 4170
17:57:01.842279, 82.0125, 4181
17:57:01.842294, 82.015, 4165
17:57:01.842309, 82.0175, 4155
17:57:01.847872, 82.02, 4136
17:57:01.847922, 82.0225, 4136
17:57:01.847952, 82.025, 4037
17:57:01.847980, 82.0275, 4152
17:57:01.876549, 82.03, 4145
17:57:01.876605, 82.0325, 4125
17:57:01.876651, 82.035, 4156
17:57:01.876673, 82.0375, 4165
17:57:01.876992, 82.04, 4161
17:57:01.877019, 82.0425, 4143
17:57:01.877035, 82.045, 4170
17:57:01.877050, 82.0475, 4154
17:57:01.883304, 82.05, 4142
17:57:01.883397, 82.0525, 4166
17:57:01.883454, 82.055, 4140
17:57:01.883505, 82.0575, 4146
17:57:01.908013, 82.06, 4141
17:57:01.908089, 82.0625, 4166
17:57:01.908118, 82.065, 4160
17:57:01.908146, 82.0675, 4147
17:57:01.908571, 82.07, 4149
17:57:01.908599, 82.0725, 4164
17:57:01.908618, 82.075, 4181
17:57:01.908636, 82.0775, 4182
17:57:01.920276, 82.08, 4173
17:57:01.920345, 82.0825, 4148
17:57:01.920379, 82.085, 4138
17:57:01.920406, 82.0875, 4139
17:57:01.921759, 82.09, 4135
17:57:01.921802, 82.0925, 4134
17:57:01.921885, 82.095, 4116
17:57:01.921934, 82.0975, 4150
17:57:01.921979, 82.1, 4145
17:57:01.939218, 82.1025, 4135
17:57:01.939313, 82.105, 4150
17:57:01.939345, 82.1075, 4142
17:57:01.939390, 82.11, 4166
17:57:01.944031, 82.1125, 4167
17:57:01.944089, 82.115, 4153
17:57:01.944121, 82.1175, 4143
17:57:01.944150, 82.12, 4145
17:57:01.952633, 82.1225, 4158
17:57:01.952666, 82.125, 4173
17:57:01.952682, 82.1275, 4158
17:57:01.952695, 82.13, 4124
17:57:01.972764, 82.1325, 4184
17:57:01.972853, 82.135, 4163
17:57:01.972875, 82.1375, 4136
17:57:01.972916, 82.14, 4124
17:57:01.973603, 82.1425, 4136
17:57:01.973644, 82.145, 4139
17:57:01.973660, 82.1475, 4131
17:57:01.973676, 82.15, 4168
17:57:01.978953, 82.1525, 4176
17:57:01.979005, 82.155, 4181
17:57:01.979031, 82.1575, 4177
17:57:01.979055, 82.16, 4174
17:57:02.009456, 82.1625, 4173
17:57:02.009512, 82.165, 4143
17:57:02.009536, 82.1675, 4162
17:57:02.009556, 82.17, 4189
17:57:02.009967, 82.1725, 4171
17:57:02.009991, 82.175, 4172
17:57:02.010007, 82.1775, 4162
17:57:02.010022, 82.18, 4201
17:57:02.013981, 82.1825, 4157
17:57:02.014031, 82.185, 4201
17:57:02.014056, 82.1875, 4187
17:57:02.014076, 82.19, 4177
17:57:02.023093, 82.1925, 4172
17:57:02.023157, 82.195, 4183
17:57:02.023185, 82.1975, 4192
17:57:02.023211, 82.2, 4159
17:57:02.023237, 82.2025, 4209
17:57:02.044274, 82.205, 4207
17:57:02.044353, 82.2075, 4187
17:57:02.044383, 82.21, 4185
17:57:02.044453, 82.2125, 4187
17:57:02.076507, 82.215, 4195
17:57:02.076606, 82.2175, 4166
17:57:02.076632, 82.22, 4177
17:57:02.076652, 82.2225, 4174
17:57:02.076981, 82.225, 4133
17:57:02.077004, 82.2275, 4170
17:57:02.077019, 82.23, 4176
17:57:02.077034, 82.2325, 4177
17:57:02.077293, 82.235, 4142
17:57:02.077313, 82.2375, 4186
17:57:02.077327, 82.24, 4162
17:57:02.077342, 82.2425, 4152
17:57:02.077601, 82.245, 4173
17:57:02.077620, 82.2475, 4179
17:57:02.077635, 82.25, 4172
17:57:02.077649, 82.2525, 4066
17:57:02.083917, 82.255, 4176
17:57:02.083947, 82.2575, 4160
17:57:02.083964, 82.26, 4122
17:57:02.083979, 82.2625, 4144
17:57:02.110161, 82.265, 4132
17:57:02.110289, 82.2675, 4142
17:57:02.110327, 82.27, 4111
17:57:02.110356, 82.2725, 4136
17:57:02.110868, 82.275, 4130
17:57:02.110900, 82.2775, 4102
17:57:02.110932, 82.28, 4119
17:57:02.110947, 82.2825, 4165
17:57:02.119149, 82.285, 4168
17:57:02.119192, 82.2875, 4128
17:57:02.119218, 82.29, 4167
17:57:02.119242, 82.2925, 4191
17:57:02.119265, 82.295, 4193
17:57:02.142944, 82.2975, 4216
17:57:02.143061, 82.3, 4221
17:57:02.143111, 82.3025, 4200
17:57:02.143136, 82.305, 4169
17:57:02.143561, 82.3075, 4211
17:57:02.143589, 82.31, 4201
17:57:02.143609, 82.3125, 4185
17:57:02.143627, 82.315, 4195
17:57:02.145078, 82.3175, 4188
17:57:02.145104, 82.32, 4187
17:57:02.145152, 82.3225, 4161
17:57:02.145173, 82.325, 4200
17:57:02.154212, 82.3275, 4204
17:57:02.154299, 82.33, 4190
17:57:02.154320, 82.3325, 4231
17:57:02.154339, 82.335, 4185
17:57:02.177442, 82.3375, 4201
17:57:02.177501, 82.34, 4177
17:57:02.177524, 82.3425, 4214
17:57:02.177546, 82.345, 4199
17:57:02.180349, 82.3475, 4182
17:57:02.180400, 82.35, 4172
17:57:02.180427, 82.3525, 4182
17:57:02.180452, 82.355, 4196
17:57:02.189597, 82.3575, 4169
17:57:02.189648, 82.36, 4222
17:57:02.189670, 82.3625, 4291
17:57:02.189689, 82.365, 4343
17:57:02.211275, 82.3675, 4382
17:57:02.211343, 82.37, 4394
17:57:02.211373, 82.3725, 4433
17:57:02.211399, 82.375, 4437
17:57:02.211954, 82.3775, 4347
17:57:02.211996, 82.38, 4197
17:57:02.212024, 82.3825, 3976
17:57:02.212051, 82.385, 3783
17:57:02.212078, 82.3875, 3512
17:57:02.215236, 82.39, 3273
17:57:02.215276, 82.3925, 2909
17:57:02.215301, 82.395, 2497
17:57:02.215325, 82.3975, 2233
17:57:02.241241, 82.4, 2074
17:57:02.241377, 82.4025, 2177
17:57:02.241426, 82.405, 2480
17:57:02.241454, 82.4075, 3080
17:57:02.242017, 82.41, 3900
17:57:02.242069, 82.4125, 4646
17:57:02.242092, 82.415, 4914
17:57:02.242113, 82.4175, 4957
17:57:02.250311, 82.42, 4944
17:57:02.250368, 82.4225, 4805
17:57:02.250399, 82.425, 4673
17:57:02.250429, 82.4275, 4529
17:57:02.285607, 82.43, 4536
17:57:02.285656, 82.4325, 4500
17:57:02.285694, 82.435, 4464
17:57:02.285731, 82.4375, 4487
17:57:02.286049, 82.44, 4474
17:57:02.286074, 82.4425, 4471
17:57:02.286089, 82.445, 4444
17:57:02.286104, 82.4475, 4484
17:57:02.286402, 82.45, 4479
17:57:02.286444, 82.4525, 4459
17:57:02.286502, 82.455, 4434
17:57:02.286559, 82.4575, 4439
17:57:02.318140, 82.46, 4433
17:57:02.318203, 82.4625, 4423
17:57:02.318227, 82.465, 4432
17:57:02.318295, 82.4675, 4402
17:57:02.318611, 82.47, 4387
17:57:02.318633, 82.4725, 4409
17:57:02.318649, 82.475, 4395
17:57:02.318663, 82.4775, 4378
17:57:02.318678, 82.48, 4340
17:57:02.318947, 82.4825, 4378
17:57:02.318968, 82.485, 4364
17:57:02.318983, 82.4875, 4320
17:57:02.318997, 82.49, 4336
17:57:02.320007, 82.4925, 4333
17:57:02.320027, 82.495, 4312
17:57:02.320043, 82.4975, 4279
17:57:02.320057, 82.5, 4315
17:57:02.351003, 82.5025, 4289
17:57:02.351095, 82.505, 4281
17:57:02.351123, 82.5075, 4278
17:57:02.351169, 82.51, 4290
17:57:02.351442, 82.5125, 4310
17:57:02.351464, 82.515, 4256
17:57:02.351480, 82.5175, 4279
17:57:02.351494, 82.52, 4279
17:57:02.355259, 82.5225, 4263
17:57:02.355302, 82.525, 4257
17:57:02.355322, 82.5275, 4233
17:57:02.355368, 82.53, 4241
17:57:02.385540, 82.5325, 4195
17:57:02.385606, 82.535, 4235
17:57:02.385628, 82.5375, 4246
17:57:02.385694, 82.54, 4243
17:57:02.386003, 82.5425, 4237
17:57:02.386025, 82.545, 4239
17:57:02.386040, 82.5475, 4220
17:57:02.386054, 82.55, 4196
17:57:02.386313, 82.5525, 4239
17:57:02.386332, 82.555, 4215
17:57:02.386347, 82.5575, 4200
17:57:02.386362, 82.56, 4193
17:57:02.390104, 82.5625, 4186
17:57:02.390155, 82.565, 4196
17:57:02.390173, 82.5675, 4142
17:57:02.390188, 82.57, 4174
17:57:02.413520, 82.5725, 4198
17:57:02.413593, 82.575, 4191
17:57:02.413616, 82.5775, 4215
17:57:02.413638, 82.58, 4228
17:57:02.416389, 82.5825, 4200
17:57:02.416420, 82.585, 4178
17:57:02.416436, 82.5875, 4182
17:57:02.416450, 82.59, 4169
17:57:02.416464, 82.5925, 4169
17:57:02.446514, 82.595, 4181
17:57:02.446588, 82.5975, 4170
17:57:02.446610, 82.6, 4175
17:57:02.446647, 82.6025, 4161
17:57:02.447039, 82.605, 4192
17:57:02.447062, 82.6075, 4181
17:57:02.447077, 82.61, 4169
17:57:02.447092, 82.6125, 4148
17:57:02.447353, 82.615, 4145
17:57:02.447373, 82.6175, 4160
17:57:02.447388, 82.62, 4138
17:57:02.447403, 82.6225, 4154
17:57:02.451513, 82.625, 4148
17:57:02.451542, 82.6275, 4115
17:57:02.451558, 82.63, 4123
17:57:02.451572, 82.6325, 4130
17:57:02.483039, 82.635, 4136
17:57:02.483091, 82.6375, 4143
17:57:02.483156, 82.64, 4182
17:57:02.483202, 82.6425, 4155
17:57:02.483470, 82.645, 4126
17:57:02.483490, 82.6475, 4146
17:57:02.483505, 82.65, 4145
17:57:02.483519, 82.6525, 4149
17:57:02.486371, 82.655, 4119
17:57:02.486393, 82.6575, 4163
17:57:02.486436, 82.66, 4168
17:57:02.486452, 82.6625, 4120
17:57:02.509834, 82.665, 4127
17:57:02.509904, 82.6675, 4140
17:57:02.509932, 82.67, 4120
17:57:02.509954, 82.6725, 4104
17:57:02.510303, 82.675, 4134
17:57:02.510326, 82.6775, 4102
17:57:02.510342, 82.68, 4109
17:57:02.510358, 82.6825, 4119
17:57:02.513109, 82.685, 4126
17:57:02.513178, 82.6875, 4130
17:57:02.513228, 82.69, 4121
17:57:02.513275, 82.6925, 4137
17:57:02.513324, 82.695, 4147
17:57:02.544244, 82.6975, 4157
17:57:02.544319, 82.7, 4177
17:57:02.544349, 82.7025, 4189
17:57:02.544375, 82.705, 4179
17:57:02.544835, 82.7075, 4182
17:57:02.544865, 82.71, 4195
17:57:02.544915, 82.7125, 4202
17:57:02.544934, 82.715, 4193
17:57:02.547710, 82.7175, 4223
17:57:02.547753, 82.72, 4233
17:57:02.547774, 82.7225, 4246
17:57:02.547793, 82.725, 4158
17:57:02.557674, 82.7275, 4282
17:57:02.557737, 82.73, 4279
17:57:02.557760, 82.7325, 4281
17:57:02.557787, 82.735, 4298
17:57:02.576079, 82.7375, 4306
17:57:02.576186, 82.74, 4282
17:57:02.576211, 82.7425, 4260
17:57:02.576261, 82.745, 4282
17:57:02.582647, 82.7475, 4297
17:57:02.582694, 82.75, 4277
17:57:02.582711, 82.7525, 4295
17:57:02.582726, 82.755, 4290
17:57:02.593393, 82.7575, 4294
17:57:02.593473, 82.76, 4291
17:57:02.593499, 82.7625, 4284
17:57:02.593533, 82.765, 4248
17:57:02.593569, 82.7675, 4238
17:57:02.611782, 82.77, 4270
17:57:02.611850, 82.7725, 4266
17:57:02.611878, 82.775, 4252
17:57:02.611902, 82.7775, 4233
17:57:02.612605, 82.78, 4254
17:57:02.612664, 82.7825, 4236
17:57:02.612707, 82.785, 4226
17:57:02.612751, 82.7875, 4224
17:57:02.617970, 82.79, 4243
17:57:02.618045, 82.7925, 4234
17:57:02.618091, 82.795, 4125
17:57:02.618132, 82.7975, 4253
17:57:02.646388, 82.8, 4229
17:57:02.646447, 82.8025, 4204
17:57:02.646467, 82.805, 4211
17:57:02.646484, 82.8075, 4215
17:57:02.647418, 82.81, 4218
17:57:02.647452, 82.8125, 4197
17:57:02.647475, 82.815, 4220
17:57:02.647498, 82.8175, 4224
17:57:02.653058, 82.82, 4215
17:57:02.653128, 82.8225, 4236
17:57:02.653175, 82.825, 4248
17:57:02.653220, 82.8275, 4236
17:57:02.653264, 82.83, 4132
17:57:02.677216, 82.8325, 4257
17:57:02.677315, 82.835, 4247
17:57:02.677339, 82.8375, 4240
17:57:02.677838, 82.84, 4209
17:57:02.677877, 82.8425, 4189
17:57:02.677895, 82.845, 4199
17:57:02.677911, 82.8475, 4187
17:57:02.677927, 82.85, 4233
17:57:02.678774, 82.8525, 4241
17:57:02.678805, 82.855, 4219
17:57:02.678821, 82.8575, 4228
17:57:02.678836, 82.86, 4217
17:57:02.711616, 82.8625, 4220
17:57:02.711720, 82.865, 4190
17:57:02.711753, 82.8675, 4205
17:57:02.711783, 82.87, 4200
17:57:02.712331, 82.8725, 4174
17:57:02.712372, 82.875, 4179
17:57:02.712396, 82.8775, 4179
17:57:02.712418, 82.88, 4190
17:57:02.714004, 82.8825, 4154
17:57:02.714036, 82.885, 4169
17:57:02.714057, 82.8875, 4156
17:57:02.714076, 82.89, 4155
17:57:02.722907, 82.8925, 4174
17:57:02.722955, 82.895, 4184
17:57:02.722985, 82.8975, 4186
17:57:02.723012, 82.9, 4137
17:57:02.743521, 82.9025, 4169
17:57:02.743647, 82.905, 4179
17:57:02.743691, 82.9075, 4164
17:57:02.743728, 82.91, 4174
17:57:02.744400, 82.9125, 4201
17:57:02.744455, 82.915, 4201
17:57:02.744484, 82.9175, 4167
17:57:02.744511, 82.92, 4203
17:57:02.759656, 82.9225, 4199
17:57:02.759719, 82.925, 4186
17:57:02.759800, 82.9275, 4217
17:57:02.759852, 82.93, 4188
17:57:02.777520, 82.9325, 4186
17:57:02.777595, 82.935, 4167
17:57:02.777617, 82.9375, 4198
17:57:02.777637, 82.94, 4183
17:57:02.777673, 82.9425, 4170
17:57:02.786890, 82.945, 4200
17:57:02.786978, 82.9475, 4205
17:57:02.787030, 82.95, 4186
17:57:02.787084, 82.9525, 4149
17:57:02.788054, 82.955, 4185
17:57:02.788120, 82.9575, 4184
17:57:02.788172, 82.96, 4182
17:57:02.788221, 82.9625, 4153
17:57:02.794010, 82.965, 4164
17:57:02.794068, 82.9675, 4167
17:57:02.794087, 82.97, 4078
17:57:02.794106, 82.9725, 4189
17:57:02.812890, 82.975, 4172
17:57:02.812954, 82.9775, 4169
17:57:02.812979, 82.98, 4179
17:57:02.812999, 82.9825, 4146
17:57:02.819363, 82.985, 4142
17:57:02.819447, 82.9875, 4132
17:57:02.819497, 82.99, 4163
17:57:02.819543, 82.9925, 4182
17:57:02.849955, 82.995, 4166
17:57:02.850020, 82.9975, 4156
17:57:02.850077, 83.0, 4147
17:57:02.850110, 83.0025, 4153
17:57:02.850485, 83.005, 4141
17:57:02.850514, 83.0075, 4171
17:57:02.850533, 83.01, 4160
17:57:02.850551, 83.0125, 4161
17:57:02.850904, 83.015, 4165
17:57:02.850930, 83.0175, 4176
17:57:02.850948, 83.02, 4157
17:57:02.850967, 83.0225, 4131
17:57:02.854369, 83.025, 4180
17:57:02.854451, 83.0275, 4167
17:57:02.854505, 83.03, 4168
17:57:02.854555, 83.0325, 4183
17:57:02.883443, 83.035, 4181
17:57:02.883527, 83.0375, 4167
17:57:02.883574, 83.04, 4146
17:57:02.883638, 83.0425, 4166
17:57:02.884713, 83.045, 4149
17:57:02.884787, 83.0475, 4132
17:57:02.884841, 83.05, 4149
17:57:02.884892, 83.0525, 4153
17:57:02.888982, 83.055, 4141
17:57:02.889035, 83.0575, 4138
17:57:02.889066, 83.06, 4132
17:57:02.889094, 83.0625, 4132
17:57:02.889121, 83.065, 4130
17:57:02.917601, 83.0675, 4163
17:57:02.917672, 83.07, 4155
17:57:02.917752, 83.0725, 4136
17:57:02.917779, 83.075, 4104
17:57:02.918112, 83.0775, 4151
17:57:02.918136, 83.08, 4159
17:57:02.918151, 83.0825, 4142
17:57:02.918166, 83.085, 4165
17:57:02.918525, 83.0875, 4167
17:57:02.918574, 83.09, 4155
17:57:02.918615, 83.0925, 4114
17:57:02.918652, 83.095, 4141
17:57:02.924439, 83.0975, 4168
17:57:02.924522, 83.1, 4158
17:57:02.924577, 83.1025, 4156
17:57:02.924627, 83.105, 4148
17:57:02.955515, 83.1075, 4168
17:57:02.955575, 83.11, 4133
17:57:02.955642, 83.1125, 4146
17:57:02.955694, 83.115, 4150
17:57:02.955977, 83.1175, 4133
17:57:02.955999, 83.12, 4130
17:57:02.956015, 83.1225, 4130
17:57:02.956030, 83.125, 4134
17:57:02.978145, 83.1275, 4112
17:57:02.978228, 83.13, 4153
17:57:02.978253, 83.1325, 4139
17:57:02.978272, 83.135, 4109
17:57:02.978692, 83.1375, 4164
17:57:02.978726, 83.14, 4172
17:57:02.978741, 83.1425, 4156
17:57:02.978757, 83.145, 4124
17:57:02.979042, 83.1475, 4153
17:57:02.979070, 83.15, 4149
17:57:02.979085, 83.1525, 4166
17:57:02.979099, 83.155, 4169
17:57:02.979115, 83.1575, 4171
17:57:02.985407, 83.16, 4185
17:57:02.985463, 83.1625, 4143
17:57:02.985497, 83.165, 4158
17:57:02.985528, 83.1675, 4164
17:57:03.016804, 83.17, 4163
17:57:03.016862, 83.1725, 4146
17:57:03.016883, 83.175, 4159
17:57:03.016903, 83.1775, 4157
17:57:03.017244, 83.18, 4139
17:57:03.017269, 83.1825, 4144
17:57:03.017284, 83.185, 4153
17:57:03.017299, 83.1875, 4137
17:57:03.020790, 83.19, 4153
17:57:03.020883, 83.1925, 4155
17:57:03.020940, 83.195, 4151
17:57:03.020992, 83.1975, 4121
17:57:03.045973, 83.2, 4175
17:57:03.046089, 83.2025, 4174
17:57:03.046123, 83.205, 4142
17:57:03.046148, 83.2075, 4137
17:57:03.046800, 83.21, 4123
17:57:03.046888, 83.2125, 4148
17:57:03.046917, 83.215, 4138
17:57:03.046938, 83.2175, 4185
17:57:03.055268, 83.22, 4175
17:57:03.055297, 83.2225, 4164
17:57:03.055312, 83.225, 4144
17:57:03.055326, 83.2275, 4124
17:57:03.078256, 83.23, 4094
17:57:03.078369, 83.2325, 4060
17:57:03.078394, 83.235, 4064
17:57:03.078415, 83.2375, 4086
17:57:03.078435, 83.24, 4076
17:57:03.078877, 83.2425, 4123
17:57:03.078943, 83.245, 4134
17:57:03.078967, 83.2475, 4116
17:57:03.078990, 83.25, 4104
17:57:03.081524, 83.2525, 4134
17:57:03.081561, 83.255, 4143
17:57:03.081585, 83.2575, 4129
17:57:03.081608, 83.26, 4160
17:57:03.090688, 83.2625, 4165
17:57:03.090772, 83.265, 4158
17:57:03.090826, 83.2675, 4113
17:57:03.090930, 83.27, 4185
17:57:03.111701, 83.2725, 4191
17:57:03.111800, 83.275, 4194
17:57:03.111822, 83.2775, 4193
17:57:03.111842, 83.28, 4203
17:57:03.116793, 83.2825, 4178
17:57:03.116839, 83.285, 4171
17:57:03.116865, 83.2875, 4183
17:57:03.116889, 83.29, 4173
17:57:03.116913, 83.2925, 4154
17:57:03.125479, 83.295, 4188
17:57:03.125550, 83.2975, 4180
17:57:03.125593, 83.3, 4167
17:57:03.125634, 83.3025, 4149
17:57:03.146478, 83.305, 4193
17:57:03.146563, 83.3075, 4178
17:57:03.146585, 83.31, 4163
17:57:03.146604, 83.3125, 4182
17:57:03.147017, 83.315, 4184
17:57:03.147048, 83.3175, 4200
17:57:03.147062, 83.32, 4159
17:57:03.147076, 83.3225, 4211
17:57:03.151274, 83.325, 4196
17:57:03.151298, 83.3275, 4174
17:57:03.151313, 83.33, 4202
17:57:03.151327, 83.3325, 4181
17:57:03.181969, 83.335, 4191
17:57:03.182065, 83.3375, 4223
17:57:03.182093, 83.34, 4317
17:57:03.182114, 83.3425, 4368
17:57:03.182442, 83.345, 4392
17:57:03.182466, 83.3475, 4452
17:57:03.182482, 83.35, 4479
17:57:03.182497, 83.3525, 4439
17:57:03.187045, 83.355, 4280
17:57:03.187075, 83.3575, 4149
17:57:03.187092, 83.36, 3914
17:57:03.187107, 83.3625, 3631
17:57:03.213240, 83.365, 3343
17:57:03.213388, 83.3675, 2969
17:57:03.213564, 83.37, 2525
17:57:03.213605, 83.3725, 2148
17:57:03.213627, 83.375, 1966
17:57:03.213943, 83.3775, 1984
17:57:03.213973, 83.38, 2146
17:57:03.213988, 83.3825, 2694
17:57:03.214003, 83.385, 3530
17:57:03.214255, 83.3875, 4335
17:57:03.214280, 83.39, 4741
17:57:03.214294, 83.3925, 4908
17:57:03.214308, 83.395, 4875
17:57:03.246580, 83.3975, 4745
17:57:03.246729, 83.4, 4643
17:57:03.246770, 83.4025, 4575
17:57:03.246799, 83.405, 4524
17:57:03.247329, 83.4075, 4502
17:57:03.247379, 83.41, 4502
17:57:03.247401, 83.4125, 4485
17:57:03.247421, 83.415, 4456
17:57:03.247783, 83.4175, 4470
17:57:03.247812, 83.42, 4471
17:57:03.247832, 83.4225, 4470
17:57:03.247851, 83.425, 4440
17:57:03.257207, 83.4275, 4474
17:57:03.257307, 83.43, 4462
17:57:03.257361, 83.4325, 4449
17:57:03.257413, 83.435, 4452
17:57:03.279634, 83.4375, 4453
17:57:03.279711, 83.44, 4451
17:57:03.279732, 83.4425, 4430
17:57:03.279748, 83.445, 4434
17:57:03.282619, 83.4475, 4417
17:57:03.282653, 83.45, 4395
17:57:03.282668, 83.4525, 4405
17:57:03.282682, 83.455, 4393
17:57:03.291726, 83.4575, 4371
17:57:03.291791, 83.46, 4348
17:57:03.291829, 83.4625, 4354
17:57:03.291864, 83.465, 4357
17:57:03.291898, 83.4675, 4319
17:57:03.316587, 83.47, 4305
17:57:03.316655, 83.4725, 4310
17:57:03.316679, 83.475, 4317
17:57:03.316699, 83.4775, 4288
17:57:03.317070, 83.48, 4301
17:57:03.317096, 83.4825, 4288
17:57:03.317112, 83.485, 4276
17:57:03.317127, 83.4875, 4277
17:57:03.317623, 83.49, 4282
17:57:03.317643, 83.4925, 4298
17:57:03.317658, 83.495, 4273
17:57:03.317672, 83.4975, 4296
17:57:03.351237, 83.5, 4293
17:57:03.351307, 83.5025, 4252
17:57:03.351372, 83.505, 4256
17:57:03.351404, 83.5075, 4264
17:57:03.355302, 83.51, 4231
17:57:03.355372, 83.5125, 4235
17:57:03.355408, 83.515, 4241
17:57:03.355443, 83.5175, 4254
17:57:03.355478, 83.52, 4221
17:57:03.356328, 83.5225, 4226
17:57:03.356373, 83.525, 4197
17:57:03.356409, 83.5275, 4194
17:57:03.362559, 83.53, 4171
17:57:03.362635, 83.5325, 4182
17:57:03.362686, 83.535, 4198
17:57:03.362735, 83.5375, 4170
17:57:03.388632, 83.54, 4183
17:57:03.388715, 83.5425, 4184
17:57:03.388750, 83.545, 4208
17:57:03.388778, 83.5475, 4157
17:57:03.390130, 83.55, 4171
17:57:03.390181, 83.5525, 4177
17:57:03.390216, 83.555, 4148
17:57:03.390251, 83.5575, 4183
17:57:03.390284, 83.56, 4204
17:57:03.391696, 83.5625, 4175
17:57:03.391762, 83.565, 4153
17:57:03.391809, 83.5675, 4164
17:57:03.391853, 83.57, 4171
17:57:03.413217, 83.5725, 4159
17:57:03.413295, 83.575, 4169
17:57:03.413320, 83.5775, 4197
17:57:03.413340, 83.58, 4187
17:57:03.413898, 83.5825, 4180
17:57:03.413940, 83.585, 4194
17:57:03.413956, 83.5875, 4192
17:57:03.413970, 83.59, 4149
17:57:03.423102, 83.5925, 4172
17:57:03.423176, 83.595, 4190
17:57:03.423218, 83.5975, 4180
17:57:03.423256, 83.6, 4147
17:57:03.449909, 83.6025, 4155
17:57:03.449979, 83.605, 4164
17:57:03.450003, 83.6075, 4152
17:57:03.450024, 83.61, 4176
17:57:03.450392, 83.6125, 4200
17:57:03.450415, 83.615, 4191
17:57:03.450431, 83.6175, 4141
17:57:03.450445, 83.62, 4154
17:57:03.458332, 83.6225, 4150
17:57:03.458442, 83.625, 4151
17:57:03.458501, 83.6275, 4162
17:57:03.458551, 83.63, 4149
17:57:03.483789, 83.6325, 4147
17:57:03.483881, 83.635, 4146
17:57:03.483907, 83.6375, 4153
17:57:03.483929, 83.64, 4161
17:57:03.483951, 83.6425, 4121
17:57:03.484266, 83.645, 4134
17:57:03.484292, 83.6475, 4148
17:57:03.484308, 83.65, 4142
17:57:03.517147, 83.6525, 4116
17:57:03.517214, 83.655, 4114
17:57:03.517239, 83.6575, 4104
17:57:03.517278, 83.66, 4084
17:57:03.517620, 83.6625, 4097
17:57:03.517643, 83.665, 4106
17:57:03.517659, 83.6675, 4120
17:57:03.517674, 83.67, 4096
17:57:03.517933, 83.6725, 4119
17:57:03.517952, 83.675, 4134
17:57:03.517993, 83.6775, 4139
17:57:03.518010, 83.68, 4139
17:57:03.518024, 83.6825, 4138
17:57:03.518284, 83.685, 4157
17:57:03.518302, 83.6875, 4050
17:57:03.518317, 83.69, 4187
17:57:03.518332, 83.6925, 4171
17:57:03.527889, 83.695, 4173
17:57:03.527953, 83.6975, 4192
17:57:03.527970, 83.7, 4203
17:57:03.527992, 83.7025, 4198
17:57:03.549891, 83.705, 4209
17:57:03.549970, 83.7075, 4215
17:57:03.550003, 83.71, 4197
17:57:03.550071, 83.7125, 4196
17:57:03.550488, 83.715, 4224
17:57:03.550518, 83.7175, 4226
17:57:03.550540, 83.72, 4228
17:57:03.550560, 83.7225, 4193
17:57:03.580881, 83.725, 4246
17:57:03.581018, 83.7275, 4228
17:57:03.581068, 83.73, 4227
17:57:03.581113, 83.7325, 4214
17:57:03.581746, 83.735, 4248
17:57:03.581802, 83.7375, 4239
17:57:03.581827, 83.74, 4219
17:57:03.581850, 83.7425, 4224
17:57:03.582249, 83.745, 4250
17:57:03.582285, 83.7475, 4215
17:57:03.582308, 83.75, 4240
17:57:03.582330, 83.7525, 4213
17:57:03.589211, 83.755, 4200
17:57:03.589271, 83.7575, 4094
17:57:03.589307, 83.76, 4210
17:57:03.589341, 83.7625, 4227
17:57:03.589375, 83.765, 4208
17:57:03.614380, 83.7675, 4205
17:57:03.614464, 83.77, 4202
17:57:03.614489, 83.7725, 4183
17:57:03.614509, 83.775, 4149
17:57:03.617279, 83.7775, 4195
17:57:03.617316, 83.78, 4204
17:57:03.617331, 83.7825, 4222
17:57:03.617345, 83.785, 4210
17:57:03.618508, 83.7875, 4210
17:57:03.618528, 83.79, 4196
17:57:03.618543, 83.7925, 4174
17:57:03.618556, 83.795, 4208
17:57:03.652363, 83.7975, 4220
17:57:03.652433, 83.8, 4201
17:57:03.652457, 83.8025, 4192
17:57:03.652478, 83.805, 4213
17:57:03.652783, 83.8075, 4190
17:57:03.652807, 83.81, 4150
17:57:03.652822, 83.8125, 4206
17:57:03.652837, 83.815, 4173
17:57:03.653095, 83.8175, 4148
17:57:03.653115, 83.82, 4179
17:57:03.653129, 83.8225, 4164
17:57:03.653144, 83.825, 4167
17:57:03.653158, 83.8275, 4059
17:57:03.685106, 83.83, 4188
17:57:03.685194, 83.8325, 4167
17:57:03.685229, 83.835, 4162
17:57:03.685748, 83.8375, 4193
17:57:03.685781, 83.84, 4199
17:57:03.685801, 83.8425, 4208
17:57:03.685815, 83.845, 4160
17:57:03.686169, 83.8475, 4190
17:57:03.686196, 83.85, 4173
17:57:03.686217, 83.8525, 4165
17:57:03.686238, 83.855, 4162
17:57:03.686258, 83.8575, 4165
17:57:03.694004, 83.86, 4193
17:57:03.694059, 83.8625, 4064
17:57:03.694089, 83.865, 4193
17:57:03.694116, 83.8675, 4204
17:57:03.725091, 83.87, 4175
17:57:03.725203, 83.8725, 4181
17:57:03.725262, 83.875, 4176
17:57:03.725314, 83.8775, 4163
17:57:03.727751, 83.88, 4123
17:57:03.727786, 83.8825, 4160
17:57:03.727809, 83.885, 4159
17:57:03.727829, 83.8875, 4124
17:57:03.730965, 83.89, 4139
17:57:03.731019, 83.8925, 4159
17:57:03.731041, 83.895, 4160
17:57:03.731061, 83.8975, 4113
17:57:03.750289, 83.9, 4157
17:57:03.750353, 83.9025, 4150
17:57:03.750392, 83.905, 4147
17:57:03.750412, 83.9075, 4142
17:57:03.750779, 83.91, 4185
17:57:03.750804, 83.9125, 4183
17:57:03.750820, 83.915, 4151
17:57:03.750835, 83.9175, 4193
17:57:03.755142, 83.92, 4187
17:57:03.755175, 83.9225, 4178
17:57:03.755191, 83.925, 4178
17:57:03.755206, 83.9275, 4153
17:57:03.764478, 83.93, 4162
17:57:03.764528, 83.9325, 4129
17:57:03.764548, 83.935, 4178
17:57:03.764601, 83.9375, 4187
17:57:03.764634, 83.94, 4193
17:57:03.785332, 83.9425, 4198
17:57:03.785400, 83.945, 4188
17:57:03.785426, 83.9475, 4176
17:57:03.785447, 83.95, 4149
17:57:03.792600, 83.9525, 4175
17:57:03.792665, 83.955, 4183
17:57:03.792694, 83.9575, 4165
17:57:03.792720, 83.96, 4169
17:57:03.793674, 83.9625, 4201
17:57:03.793710, 83.965, 4163
17:57:03.793736, 83.9675, 4154
17:57:03.793761, 83.97, 4165
17:57:03.798978, 83.9725, 4161
17:57:03.799059, 83.975, 4156
17:57:03.799079, 83.9775, 4175
17:57:03.800065, 83.98, 4190
17:57:03.820590, 83.9825, 4182
17:57:03.820675, 83.985, 4178
17:57:03.820713, 83.9875, 4192
17:57:03.820744, 83.99, 4154
17:57:03.850603, 83.9925, 4139
17:57:03.850679, 83.995, 4138
17:57:03.850709, 83.9975, 4151
17:57:03.850735, 84.0, 4175
17:57:03.851347, 84.0025, 4138
17:57:03.851401, 84.005, 4197
17:57:03.851435, 84.0075, 4182
17:57:03.851467, 84.01, 4150
17:57:03.852023, 84.0125, 4179
17:57:03.852086, 84.015, 4179
17:57:03.852102, 84.0175, 4186
17:57:03.852116, 84.02, 4047
17:57:03.862435, 84.0225, 4191
17:57:03.862478, 84.025, 4184
17:57:03.862504, 84.0275, 4167
17:57:03.862528, 84.03, 4168
17:57:03.865971, 84.0325, 4171
17:57:03.866954, 84.035, 4153
17:57:03.867005, 84.0375, 4115
17:57:03.867032, 84.04, 4166
17:57:03.867060, 84.0425, 4161
17:57:03.883659, 84.045, 4134
17:57:03.883790, 84.0475, 4155
17:57:03.883848, 84.05, 4156
17:57:03.883892, 84.0525, 4166
17:57:03.886406, 84.055, 4146
17:57:03.886451, 84.0575, 4166
17:57:03.886476, 84.06, 4142
17:57:03.886499, 84.0625, 4149
17:57:03.916428, 84.065, 4177
17:57:03.916513, 84.0675, 4174
17:57:03.916549, 84.07, 4156
17:57:03.916575, 84.0725, 4141
17:57:03.916968, 84.075, 4146
17:57:03.917006, 84.0775, 4140
17:57:03.917021, 84.08, 4134
17:57:03.917035, 84.0825, 4130
17:57:03.917293, 84.085, 4142
17:57:03.917318, 84.0875, 4146
17:57:03.917333, 84.09, 4053
17:57:03.917348, 84.0925, 4185
17:57:03.931094, 84.095, 4185
17:57:03.931161, 84.0975, 4157
17:57:03.931191, 84.1, 4177
17:57:03.931218, 84.1025, 4172
17:57:03.954439, 84.105, 4151
17:57:03.954514, 84.1075, 4130
17:57:03.954544, 84.11, 4175
17:57:03.954568, 84.1125, 4165
17:57:03.954593, 84.115, 4187
17:57:03.955029, 84.1175, 4177
17:57:03.955050, 84.12, 4191
17:57:03.955065, 84.1225, 4183
17:57:03.955078, 84.125, 4155
17:57:03.956231, 84.1275, 4174
17:57:03.956252, 84.13, 4158
17:57:03.956266, 84.1325, 4156
17:57:03.956280, 84.135, 4163
17:57:03.965807, 84.1375, 4170
17:57:03.965865, 84.14, 4172
17:57:03.965886, 84.1425, 4129
17:57:03.965907, 84.145, 4174
17:57:03.985981, 84.1475, 4167
17:57:03.986040, 84.15, 4164
17:57:03.986061, 84.1525, 4169
17:57:03.986080, 84.155, 4172
17:57:03.991306, 84.1575, 4174
17:57:03.991334, 84.16, 4134
17:57:03.991349, 84.1625, 4164
17:57:03.991363, 84.165, 4183
17:57:04.017050, 84.1675, 4158
17:57:04.017160, 84.17, 4177
17:57:04.017191, 84.1725, 4190
17:57:04.017217, 84.175, 4172
17:57:04.017787, 84.1775, 4136
17:57:04.017845, 84.18, 4157
17:57:04.017869, 84.1825, 4166
17:57:04.017889, 84.185, 4165
17:57:04.018231, 84.1875, 4167
17:57:04.018267, 84.19, 4157
17:57:04.018287, 84.1925, 4158
17:57:04.018306, 84.195, 4118
17:57:04.026455, 84.1975, 4164
17:57:04.026507, 84.2, 4166
17:57:04.026528, 84.2025, 4160
17:57:04.026547, 84.205, 4203
17:57:04.052956, 84.2075, 4175
17:57:04.053057, 84.21, 4166
17:57:04.053113, 84.2125, 4133
17:57:04.053158, 84.215, 4176
17:57:04.053238, 84.2175, 4170
17:57:04.053923, 84.22, 4170
17:57:04.053971, 84.2225, 4163
17:57:04.054009, 84.225, 4177
17:57:04.054043, 84.2275, 4169
17:57:04.062071, 84.23, 4174
17:57:04.062129, 84.2325, 4163
17:57:04.062163, 84.235, 4173
17:57:04.062192, 84.2375, 4158
17:57:04.095569, 84.24, 4176
17:57:04.095680, 84.2425, 4156
17:57:04.095711, 84.245, 4165
17:57:04.095759, 84.2475, 4139
17:57:04.096124, 84.25, 4174
17:57:04.096149, 84.2525, 4142
17:57:04.096166, 84.255, 4149
17:57:04.096181, 84.2575, 4169
17:57:04.096452, 84.26, 4161
17:57:04.096472, 84.2625, 4145
17:57:04.096488, 84.265, 4111
17:57:04.096503, 84.2675, 4137
17:57:04.096988, 84.27, 4138
17:57:04.097032, 84.2725, 4128
17:57:04.097058, 84.275, 4119
17:57:04.097082, 84.2775, 4145
17:57:04.128005, 84.28, 4117
17:57:04.128067, 84.2825, 4109
17:57:04.128091, 84.285, 4152
17:57:04.128156, 84.2875, 4145
17:57:04.128466, 84.29, 4150
17:57:04.128489, 84.2925, 4170
17:57:04.128504, 84.295, 4170
17:57:04.128519, 84.2975, 4174
17:57:04.132548, 84.3, 4154
17:57:04.132587, 84.3025, 4189
17:57:04.132608, 84.305, 4184
17:57:04.132625, 84.3075, 4157
17:57:04.132685, 84.31, 4176
17:57:04.162749, 84.3125, 4154
17:57:04.162801, 84.315, 4138
17:57:04.162878, 84.3175, 4139
17:57:04.162930, 84.32, 4176
17:57:04.163206, 84.3225, 4188
17:57:04.163229, 84.325, 4169
17:57:04.163244, 84.3275, 4172
17:57:04.163257, 84.33, 4160
17:57:04.166930, 84.3325, 4158
17:57:04.166996, 84.335, 4136
17:57:04.167019, 84.3375, 4180
17:57:04.167038, 84.34, 4213
17:57:04.191390, 84.3425, 4192
17:57:04.191456, 84.345, 4178
17:57:04.191492, 84.3475, 4180
17:57:04.191531, 84.35, 4172
17:57:04.191872, 84.3525, 4149
17:57:04.191923, 84.355, 4174
17:57:04.191940, 84.3575, 4178
17:57:04.191954, 84.36, 4187
17:57:04.192633, 84.3625, 4196
17:57:04.192651, 84.365, 4191
17:57:04.192666, 84.3675, 4175
17:57:04.192679, 84.37, 4070
17:57:04.217972, 84.3725, 4198
17:57:04.218053, 84.375, 4193
17:57:04.218076, 84.3775, 4180
17:57:04.218096, 84.38, 4219
17:57:04.218500, 84.3825, 4201
17:57:04.218534, 84.385, 4184
17:57:04.218549, 84.3875, 4140
17:57:04.218564, 84.39, 4173
17:57:04.227631, 84.3925, 4164
17:57:04.227664, 84.395, 4166
17:57:04.227680, 84.3975, 4169
17:57:04.227694, 84.4, 4186
17:57:04.227709, 84.4025, 4172
17:57:04.252587, 84.405, 4149
17:57:04.252668, 84.4075, 4169
17:57:04.252690, 84.41, 4169
17:57:04.252711, 84.4125, 4152
17:57:04.253104, 84.415, 4153
17:57:04.253134, 84.4175, 4162
17:57:04.253150, 84.42, 4155
17:57:04.253165, 84.4225, 4120
17:57:04.253890, 84.425, 4151
17:57:04.253915, 84.4275, 4137
17:57:04.253930, 84.43, 4148
17:57:04.253944, 84.4325, 4137
17:57:04.263311, 84.435, 4118
17:57:04.263395, 84.4375, 4107
17:57:04.263450, 84.44, 4057
17:57:04.263501, 84.4425, 4083
17:57:04.286508, 84.445, 4085
17:57:04.286618, 84.4475, 4087
17:57:04.286646, 84.45, 4145
17:57:04.286674, 84.4525, 4151
17:57:04.288982, 84.455, 4156
17:57:04.289022, 84.4575, 4119
17:57:04.289042, 84.46, 4134
17:57:04.289061, 84.4625, 4144
17:57:04.298078, 84.465, 4141
17:57:04.298149, 84.4675, 4161
17:57:04.298193, 84.47, 4160
17:57:04.298233, 84.4725, 4170
17:57:04.318902, 84.475, 4161
17:57:04.318998, 84.4775, 4179
17:57:04.319027, 84.48, 4192
17:57:04.319053, 84.4825, 4177
17:57:04.319576, 84.485, 4199
17:57:04.319629, 84.4875, 4193
17:57:04.319651, 84.49, 4189
17:57:04.319671, 84.4925, 4167
17:57:04.324127, 84.495, 4204
17:57:04.324190, 84.4975, 4184
17:57:04.324225, 84.5, 4176
17:57:04.324259, 84.5025, 4163
17:57:04.324293, 84.505, 4172
17:57:04.333573, 84.5075, 4173
17:57:04.333624, 84.51, 4142
17:57:04.333648, 84.5125, 4203
17:57:04.333673, 84.515, 4224
17:57:04.354930, 84.5175, 4175
17:57:04.355020, 84.52, 4182
17:57:04.355089, 84.5225, 4191
17:57:04.355160, 84.525, 4179
17:57:04.359400, 84.5275, 4155
17:57:04.359482, 84.53, 4184
17:57:04.359537, 84.5325, 4167
17:57:04.359588, 84.535, 4182
17:57:04.385133, 84.5375, 4203
17:57:04.385201, 84.54, 4274
17:57:04.385224, 84.5425, 4323
17:57:04.385244, 84.545, 4330
17:57:04.385650, 84.5475, 4408
17:57:04.385692, 84.55, 4412
17:57:04.385709, 84.5525, 4415
17:57:04.385724, 84.555, 4345
17:57:04.385999, 84.5575, 4191
17:57:04.386026, 84.56, 3991
17:57:04.386043, 84.5625, 3721
17:57:04.386057, 84.565, 3488
17:57:04.420017, 84.5675, 3167
17:57:04.420099, 84.57, 2801
17:57:04.420118, 84.5725, 2344
17:57:04.420133, 84.575, 2112
17:57:04.420148, 84.5775, 2039
17:57:04.420447, 84.58, 2166
17:57:04.420482, 84.5825, 2506
17:57:04.420497, 84.585, 3171
17:57:04.420516, 84.5875, 3980
17:57:04.420790, 84.59, 4621
17:57:04.420812, 84.5925, 4900
17:57:04.420827, 84.595, 4930
17:57:04.420840, 84.5975, 4828
17:57:04.428976, 84.6, 4722
17:57:04.429034, 84.6025, 4622
17:57:04.429065, 84.605, 4541
17:57:04.429093, 84.6075, 4520
17:57:04.462936, 84.61, 4505
17:57:04.463004, 84.6125, 4487
17:57:04.463069, 84.615, 4451
17:57:04.463097, 84.6175, 4463
17:57:04.463422, 84.62, 4471
17:57:04.463445, 84.6225, 4445
17:57:04.463461, 84.625, 4424
17:57:04.463476, 84.6275, 4442
17:57:04.463764, 84.63, 4432
17:57:04.463784, 84.6325, 4425
17:57:04.463799, 84.635, 4433
17:57:04.463813, 84.6375, 4447
17:57:04.463827, 84.64, 4402
17:57:04.493589, 84.6425, 4417
17:57:04.493669, 84.645, 4412
17:57:04.493695, 84.6475, 4407
17:57:04.493713, 84.65, 4341
17:57:04.494056, 84.6525, 4385
17:57:04.494081, 84.655, 4363
17:57:04.494097, 84.6575, 4353
17:57:04.494112, 84.66, 4343
17:57:04.494370, 84.6625, 4336
17:57:04.494389, 84.665, 4339
17:57:04.494404, 84.6675, 4327
17:57:04.494418, 84.67, 4345
17:57:04.498779, 84.6725, 4331
17:57:04.498811, 84.675, 4314
17:57:04.498826, 84.6775, 4302
17:57:04.498847, 84.68, 4319
17:57:04.520141, 84.6825, 4304
17:57:04.520271, 84.685, 4263
17:57:04.520296, 84.6875, 4294
17:57:04.520318, 84.69, 4292
17:57:04.525001, 84.6925, 4286
17:57:04.525068, 84.695, 4292
17:57:04.525087, 84.6975, 4280
17:57:04.525102, 84.7, 4269
17:57:04.552521, 84.7025, 4243
17:57:04.552610, 84.705, 4255
17:57:04.552633, 84.7075, 4257
17:57:04.552654, 84.71, 4248
17:57:04.553041, 84.7125, 4254
17:57:04.553074, 84.715, 4265
17:57:04.553090, 84.7175, 4263
17:57:04.553104, 84.72, 4229
17:57:04.553118, 84.7225, 4240
17:57:04.553377, 84.725, 4229
17:57:04.553398, 84.7275, 4217
17:57:04.553413, 84.73, 4221
17:57:04.553427, 84.7325, 4232
17:57:04.560156, 84.735, 4251
17:57:04.560208, 84.7375, 4203
17:57:04.560246, 84.74, 4235
17:57:04.560271, 84.7425, 4214
17:57:04.590803, 84.745, 4189
17:57:04.590894, 84.7475, 4183
17:57:04.590934, 84.75, 4175
17:57:04.590966, 84.7525, 4164
17:57:04.591431, 84.755, 4151
17:57:04.591461, 84.7575, 4175
17:57:04.591480, 84.76, 4168
17:57:04.591499, 84.7625, 4151
17:57:04.595696, 84.765, 4177
17:57:04.595783, 84.7675, 4173
17:57:04.595838, 84.77, 4162
17:57:04.595888, 84.7725, 4127
17:57:04.621487, 84.775, 4174
17:57:04.621544, 84.7775, 4180
17:57:04.621567, 84.78, 4155
17:57:04.621587, 84.7825, 4156
17:57:04.621932, 84.785, 4135
17:57:04.621954, 84.7875, 4143
17:57:04.621969, 84.79, 4122
17:57:04.621984, 84.7925, 4149
17:57:04.630121, 84.795, 4153
17:57:04.630151, 84.7975, 4148
17:57:04.630166, 84.8, 4169
17:57:04.630181, 84.8025, 4161
17:57:04.657965, 84.805, 4152
17:57:04.658062, 84.8075, 4134
17:57:04.658091, 84.81, 4126
17:57:04.658114, 84.8125, 4121
17:57:04.658137, 84.815, 4130
17:57:04.658472, 84.8175, 4143
17:57:04.658496, 84.82, 4133
17:57:04.658513, 84.8225, 4132
17:57:04.658529, 84.825, 4114
17:57:04.658818, 84.8275, 4144
17:57:04.658855, 84.83, 4138
17:57:04.658884, 84.8325, 4133
17:57:04.658903, 84.835, 4149
17:57:04.665030, 84.8375, 4145
17:57:04.665074, 84.84, 4151
17:57:04.665098, 84.8425, 4108
17:57:04.665127, 84.845, 4145
17:57:04.686690, 84.8475, 4149
17:57:04.686770, 84.85, 4133
17:57:04.686796, 84.8525, 4134
17:57:04.686816, 84.855, 4159
17:57:04.691615, 84.8575, 4164
17:57:04.691674, 84.86, 4106
17:57:04.691704, 84.8625, 4129
17:57:04.691731, 84.865, 4140
17:57:04.723042, 84.8675, 4123
17:57:04.723141, 84.87, 4125
17:57:04.723187, 84.8725, 4153
17:57:04.723224, 84.875, 4145
17:57:04.725235, 84.8775, 4127
17:57:04.725270, 84.88, 4180
17:57:04.725293, 84.8825, 4185
17:57:04.725314, 84.885, 4177
17:57:04.727765, 84.8875, 4194
17:57:04.727820, 84.89, 4197
17:57:04.727879, 84.8925, 4202
17:57:04.727955, 84.895, 4176
17:57:04.728998, 84.8975, 4243
17:57:04.729045, 84.9, 4231
17:57:04.729076, 84.9025, 4203
17:57:04.729105, 84.905, 4201
17:57:04.735867, 84.9075, 4248
17:57:04.735920, 84.91, 4247
17:57:04.735952, 84.9125, 4208
17:57:04.735987, 84.915, 4242
17:57:04.758818, 84.9175, 4249
17:57:04.758896, 84.92, 4242
17:57:04.758919, 84.9225, 4238
17:57:04.758938, 84.925, 4242
17:57:04.758957, 84.9275, 4260
17:57:04.761893, 84.93, 4229
17:57:04.761983, 84.9325, 4260
17:57:04.762038, 84.935, 4258
17:57:04.762091, 84.9375, 4255
17:57:04.790345, 84.94, 4269
17:57:04.790407, 84.9425, 4244
17:57:04.790430, 84.945, 4245
17:57:04.790450, 84.9475, 4219
17:57:04.790809, 84.95, 4232
17:57:04.790833, 84.9525, 4230
17:57:04.790869, 84.955, 4237
17:57:04.790886, 84.9575, 4250
17:57:04.791185, 84.96, 4233
17:57:04.791208, 84.9625, 4247
17:57:04.791224, 84.965, 4201
17:57:04.791239, 84.9675, 4229
17:57:04.796376, 84.97, 4230
17:57:04.796403, 84.9725, 4219
17:57:04.796419, 84.975, 4208
17:57:04.796434, 84.9775, 4213
17:57:04.821861, 84.98, 4233
17:57:04.821974, 84.9825, 4184
17:57:04.822014, 84.985, 4223
17:57:04.822049, 84.9875, 4204
17:57:04.822830, 84.99, 4196
17:57:04.822925, 84.9925, 4192
17:57:04.822954, 84.995, 4179
17:57:04.822981, 84.9975, 4197
17:57:04.823007, 85.0, 4150
17:57:04.831485, 85.0025, 4165
17:57:04.831526, 85.005, 4176
17:57:04.831552, 85.0075, 4170
17:57:04.831578, 85.01, 4198
17:57:04.854531, 85.0125, 4205
17:57:04.854620, 85.015, 4201
17:57:04.854657, 85.0175, 4168
17:57:04.854686, 85.02, 4213
17:57:04.855221, 85.0225, 4208
17:57:04.855284, 85.025, 4173
17:57:04.855309, 85.0275, 4178
17:57:04.855332, 85.03, 4159
17:57:04.866888, 85.0325, 4172
17:57:04.866938, 85.035, 4146
17:57:04.866963, 85.0375, 4192
17:57:04.866980, 85.04, 4175
17:57:04.888433, 85.0425, 4181
17:57:04.888531, 85.045, 4171
17:57:04.888561, 85.0475, 4165
17:57:04.888586, 85.05, 4149
17:57:04.889080, 85.0525, 4137
17:57:04.889131, 85.055, 4151
17:57:04.889154, 85.0575, 4167
17:57:04.889174, 85.06, 4139
17:57:04.892873, 85.0625, 4171
17:57:04.892931, 85.065, 4173
17:57:04.892963, 85.0675, 4162
17:57:04.892991, 85.07, 4148
17:57:04.893020, 85.0725, 4178
17:57:04.901773, 85.075, 4180
17:57:04.901826, 85.0775, 4156
17:57:04.901854, 85.08, 4144
17:57:04.901882, 85.0825, 4151
17:57:04.923163, 85.085, 4130
17:57:04.923254, 85.0875, 4115
17:57:04.923278, 85.09, 4159
17:57:04.923298, 85.0925, 4166
17:57:04.927871, 85.095, 4149
17:57:04.927924, 85.0975, 4156
17:57:04.927951, 85.1, 4164
17:57:04.927977, 85.1025, 4167
17:57:04.938234, 85.105, 4149
17:57:04.938300, 85.1075, 4182
17:57:04.938336, 85.11, 4181
17:57:04.938495, 85.1125, 4185
17:57:04.961467, 85.115, 4168
17:57:04.961529, 85.1175, 4145
17:57:04.961553, 85.12, 4177
17:57:04.961576, 85.1225, 4129
17:57:04.961965, 85.125, 4157
17:57:04.961992, 85.1275, 4142
17:57:04.962009, 85.13, 4133
17:57:04.962025, 85.1325, 4159
17:57:04.962642, 85.135, 4174
17:57:04.962667, 85.1375, 4143
17:57:04.962684, 85.14, 4127
17:57:04.962700, 85.1425, 4149
17:57:04.989002, 85.145, 4165
17:57:04.989104, 85.1475, 4140
17:57:04.989154, 85.15, 4131
17:57:04.989182, 85.1525, 4144
17:57:04.989703, 85.155, 4140
17:57:04.989748, 85.1575, 4127
17:57:04.989771, 85.16, 4175
17:57:04.989794, 85.1625, 4166
17:57:04.989816, 85.165, 4146
17:57:04.997945, 85.1675, 4139
17:57:04.998015, 85.17, 4133
17:57:04.998057, 85.1725, 4151
17:57:04.998096, 85.175, 4145
17:57:05.022459, 85.1775, 4186
17:57:05.022543, 85.18, 4159
17:57:05.022603, 85.1825, 4164
17:57:05.022627, 85.185, 4153
17:57:05.023031, 85.1875, 4133
17:57:05.023075, 85.19, 4123
17:57:05.023100, 85.1925, 4114
17:57:05.023122, 85.195, 4147
17:57:05.023881, 85.1975, 4150
17:57:05.023921, 85.2, 4136
17:57:05.023944, 85.2025, 4153
17:57:05.023966, 85.205, 4126
17:57:05.056689, 85.2075, 4127
17:57:05.056806, 85.21, 4113
17:57:05.056838, 85.2125, 4156
17:57:05.056861, 85.215, 4141
17:57:05.057208, 85.2175, 4141
17:57:05.057232, 85.22, 4143
17:57:05.057249, 85.2225, 4151
17:57:05.057264, 85.225, 4128
17:57:05.058737, 85.2275, 4105
17:57:05.058759, 85.23, 4154
17:57:05.058775, 85.2325, 4154
17:57:05.058790, 85.235, 4156
17:57:05.092815, 85.2375, 4158
17:57:05.092893, 85.24, 4170
17:57:05.092920, 85.2425, 4149
17:57:05.092942, 85.245, 4125
17:57:05.093363, 85.2475, 4169
17:57:05.093397, 85.25, 4155
17:57:05.093414, 85.2525, 4133
17:57:05.093429, 85.255, 4158
17:57:05.093444, 85.2575, 4169
17:57:05.093745, 85.26, 4158
17:57:05.093775, 85.2625, 4031
17:57:05.093793, 85.265, 4180
17:57:05.093808, 85.2675, 4126
17:57:05.103111, 85.27, 4128
17:57:05.103150, 85.2725, 4141
17:57:05.103169, 85.275, 4151
17:57:05.103188, 85.2775, 4158
17:57:05.124722, 85.28, 4152
17:57:05.124801, 85.2825, 4171
17:57:05.124835, 85.285, 4168
17:57:05.124865, 85.2875, 4147
17:57:05.125369, 85.29, 4169
17:57:05.125411, 85.2925, 4160
17:57:05.125434, 85.295, 4156
17:57:05.125456, 85.2975, 4128
17:57:05.129429, 85.3, 4144
17:57:05.129519, 85.3025, 4154
17:57:05.129575, 85.305, 4140
17:57:05.129626, 85.3075, 4156
17:57:05.138879, 85.31, 4170
17:57:05.138944, 85.3125, 4179
17:57:05.138965, 85.315, 4147
17:57:05.138984, 85.3175, 4145
17:57:05.139011, 85.32, 4139
17:57:05.158131, 85.3225, 4126
17:57:05.158240, 85.325, 4157
17:57:05.158276, 85.3275, 4192
17:57:05.158309, 85.33, 4166
17:57:05.164167, 85.3325, 4151
17:57:05.164217, 85.335, 4179
17:57:05.164242, 85.3375, 4160
17:57:05.164264, 85.34, 4159
17:57:05.189281, 85.3425, 4179
17:57:05.189367, 85.345, 4178
17:57:05.189395, 85.3475, 4169
17:57:05.189417, 85.35, 4138
17:57:05.189856, 85.3525, 4174
17:57:05.189895, 85.355, 4145
17:57:05.189912, 85.3575, 4132
17:57:05.189927, 85.36, 4149
17:57:05.190198, 85.3625, 4158
17:57:05.190225, 85.365, 4165
17:57:05.190241, 85.3675, 4149
17:57:05.190256, 85.37, 4170
17:57:05.224923, 85.3725, 4167
17:57:05.224987, 85.375, 4148
17:57:05.225011, 85.3775, 4161
17:57:05.225031, 85.38, 4169
17:57:05.225366, 85.3825, 4149
17:57:05.225387, 85.385, 4128
17:57:05.225403, 85.3875, 4166
17:57:05.225417, 85.39, 4167
17:57:05.225432, 85.3925, 4140
17:57:05.225689, 85.395, 4185
17:57:05.225709, 85.3975, 4179
17:57:05.225724, 85.4, 4173
17:57:05.225739, 85.4025, 4140
17:57:05.234398, 85.405, 4182
17:57:05.234497, 85.4075, 4164
17:57:05.234553, 85.41, 4142
17:57:05.234606, 85.4125, 4158
17:57:05.260760, 85.415, 4171
17:57:05.260822, 85.4175, 4168
17:57:05.260846, 85.42, 4157
17:57:05.260868, 85.4225, 4198
17:57:05.261215, 85.425, 4192
17:57:05.261241, 85.4275, 4182
17:57:05.261257, 85.43, 4178
17:57:05.261272, 85.4325, 4166
17:57:05.269350, 85.435, 4163
17:57:05.269436, 85.4375, 4144
17:57:05.269490, 85.44, 4154
17:57:05.269541, 85.4425, 4166
17:57:05.269590, 85.445, 4166
17:57:05.292093, 85.4475, 4173
17:57:05.292226, 85.45, 4167
17:57:05.292267, 85.4525, 4192
17:57:05.292299, 85.455, 4124
17:57:05.292819, 85.4575, 4174
17:57:05.292854, 85.46, 4179
17:57:05.292878, 85.4625, 4184
17:57:05.292901, 85.465, 4152
17:57:05.295195, 85.4675, 4177
17:57:05.295234, 85.47, 4165
17:57:05.295265, 85.4725, 4135
17:57:05.295304, 85.475, 4148
17:57:05.304012, 85.4775, 4143
17:57:05.304051, 85.48, 4146
17:57:05.304072, 85.4825, 4144
17:57:05.304172, 85.485, 4153
17:57:05.324113, 85.4875, 4180
17:57:05.324234, 85.49, 4159
17:57:05.324339, 85.4925, 4188
17:57:05.324382, 85.495, 4179
17:57:05.330255, 85.4975, 4145
17:57:05.330314, 85.5, 4133
17:57:05.330343, 85.5025, 4109
17:57:05.330370, 85.505, 4097
17:57:05.340344, 85.5075, 4037
17:57:05.357226, 85.51, 4082
17:57:05.357334, 85.5125, 4072
17:57:05.357358, 85.515, 4100
17:57:05.357378, 85.5175, 4131
17:57:05.357854, 85.52, 4163
17:57:05.357915, 85.5225, 4141
17:57:05.357943, 85.525, 4117
17:57:05.357969, 85.5275, 4161
17:57:05.358268, 85.53, 4123
17:57:05.358301, 85.5325, 4126
17:57:05.358316, 85.535, 4157
17:57:05.358331, 85.5375, 4186
17:57:05.390162, 85.54, 4177
17:57:05.390245, 85.5425, 4148
17:57:05.390287, 85.545, 4179
17:57:05.390306, 85.5475, 4150
17:57:05.390721, 85.55, 4145
17:57:05.390755, 85.5525, 4172
17:57:05.390770, 85.555, 4162
17:57:05.390784, 85.5575, 4169
17:57:05.391411, 85.56, 4161
17:57:05.391447, 85.5625, 4189
17:57:05.391463, 85.565, 4187
17:57:05.391478, 85.5675, 4173
17:57:05.400101, 85.57, 4188
17:57:05.400152, 85.5725, 4217
17:57:05.400173, 85.575, 4185
17:57:05.400192, 85.5775, 4137
17:57:05.429954, 85.58, 4196
17:57:05.430033, 85.5825, 4199
17:57:05.430108, 85.585, 4188
17:57:05.430148, 85.5875, 4187
17:57:05.430677, 85.59, 4179
17:57:05.430713, 85.5925, 4156
17:57:05.430743, 85.595, 4140
17:57:05.430771, 85.5975, 4176
17:57:05.435401, 85.6, 4171
17:57:05.435486, 85.6025, 4167
17:57:05.435531, 85.605, 4230
17:57:05.435571, 85.6075, 4301
17:57:05.435609, 85.61, 4354
17:57:05.459175, 85.6125, 4354
17:57:05.459291, 85.615, 4417
17:57:05.459327, 85.6175, 4449
17:57:05.459408, 85.62, 4404
17:57:05.459953, 85.6225, 4281
17:57:05.459988, 85.625, 4116
17:57:05.460008, 85.6275, 3902
17:57:05.460028, 85.63, 3598
17:57:05.472012, 85.6325, 3371
17:57:05.472072, 85.635, 3020
17:57:05.472093, 85.6375, 2606
17:57:05.472110, 85.64, 2200
17:57:05.492318, 85.6425, 2020
17:57:05.492442, 85.645, 1998
17:57:05.492479, 85.6475, 2142
17:57:05.492573, 85.65, 2624
17:57:05.493039, 85.6525, 3405
17:57:05.493088, 85.655, 4225
17:57:05.493112, 85.6575, 4750
17:57:05.493133, 85.66, 4943
17:57:05.496638, 85.6625, 4902
17:57:05.496690, 85.665, 4774
17:57:05.496723, 85.6675, 4646
17:57:05.496751, 85.67, 4548
17:57:05.506301, 85.6725, 4512
17:57:05.506345, 85.675, 4512
17:57:05.506366, 85.6775, 4502
17:57:05.506443, 85.68, 4480
17:57:05.506478, 85.6825, 4452
17:57:05.525701, 85.685, 4480
17:57:05.525765, 85.6875, 4482
17:57:05.525797, 85.69, 4485
17:57:05.525818, 85.6925, 4480
17:57:05.526137, 85.695, 4479
17:57:05.526159, 85.6975, 4446
17:57:05.526174, 85.7, 4389
17:57:05.526188, 85.7025, 4422
17:57:05.531931, 85.705, 4429
17:57:05.532016, 85.7075, 4392
17:57:05.532125, 85.71, 4392
17:57:05.532178, 85.7125, 4392
17:57:05.562693, 85.715, 4374
17:57:05.562804, 85.7175, 4333
17:57:05.562838, 85.72, 4371
17:57:05.562905, 85.7225, 4369
17:57:05.563234, 85.725, 4337
17:57:05.563256, 85.7275, 4343
17:57:05.563271, 85.73, 4315
17:57:05.563285, 85.7325, 4314
17:57:05.563299, 85.735, 4296
17:57:05.566223, 85.7375, 4307
17:57:05.566244, 85.74, 4332
17:57:05.566258, 85.7425, 4313
17:57:05.566272, 85.745, 4342
17:57:05.591908, 85.7475, 4321
17:57:05.592004, 85.75, 4297
17:57:05.592027, 85.7525, 4250
17:57:05.592082, 85.755, 4273
17:57:05.592418, 85.7575, 4256
17:57:05.592450, 85.76, 4242
17:57:05.592466, 85.7625, 4234
17:57:05.592480, 85.765, 4259
17:57:05.601356, 85.7675, 4252
17:57:05.601384, 85.77, 4213
17:57:05.601399, 85.7725, 4238
17:57:05.601413, 85.775, 4230
17:57:05.624606, 85.7775, 4221
17:57:05.624714, 85.78, 4242
17:57:05.624750, 85.7825, 4231
17:57:05.624794, 85.785, 4217
17:57:05.625347, 85.7875, 4185
17:57:05.625394, 85.79, 4210
17:57:05.625417, 85.7925, 4200
17:57:05.625439, 85.795, 4211
17:57:05.627830, 85.7975, 4209
17:57:05.627879, 85.8, 4185
17:57:05.627908, 85.8025, 4162
17:57:05.627934, 85.805, 4150
17:57:05.636351, 85.8075, 4195
17:57:05.636387, 85.81, 4191
17:57:05.636410, 85.8125, 4181
17:57:05.636431, 85.815, 4209
17:57:05.659444, 85.8175, 4211
17:57:05.659540, 85.82, 4199
17:57:05.659567, 85.8225, 4176
17:57:05.659589, 85.825, 4221
17:57:05.662712, 85.8275, 4225
17:57:05.662751, 85.83, 4210
17:57:05.662773, 85.8325, 4225
17:57:05.662793, 85.835, 4198
17:57:05.662812, 85.8375, 4197
17:57:05.671490, 85.84, 4205
17:57:05.671518, 85.8425, 4227
17:57:05.671533, 85.845, 4199
17:57:05.671547, 85.8475, 4185
17:57:05.694283, 85.85, 4211
17:57:05.694345, 85.8525, 4187
17:57:05.694367, 85.855, 4185
17:57:05.694387, 85.8575, 4171
17:57:05.694726, 85.86, 4213
17:57:05.694748, 85.8625, 4198
17:57:05.694763, 85.865, 4161
17:57:05.694777, 85.8675, 4182
17:57:05.697753, 85.87, 4182
17:57:05.697787, 85.8725, 4173
17:57:05.697807, 85.875, 4163
17:57:05.697826, 85.8775, 4202
17:57:05.707148, 85.88, 4192
17:57:05.707226, 85.8825, 4187
17:57:05.707259, 85.885, 4183
17:57:05.707288, 85.8875, 4190
17:57:05.728575, 85.89, 4151
17:57:05.728675, 85.8925, 4145
17:57:05.728702, 85.895, 4174
17:57:05.728723, 85.8975, 4175
17:57:05.732771, 85.9, 4185
17:57:05.732860, 85.9025, 4185
17:57:05.732889, 85.905, 4165
17:57:05.732915, 85.9075, 4164
17:57:05.761933, 85.91, 4152
17:57:05.761995, 85.9125, 4167
17:57:05.762017, 85.915, 4163
17:57:05.762036, 85.9175, 4160
17:57:05.762054, 85.92, 4146
17:57:05.762384, 85.9225, 4157
17:57:05.762404, 85.925, 4132
17:57:05.762419, 85.9275, 4113
17:57:05.762433, 85.93, 4121
17:57:05.762683, 85.9325, 4115
17:57:05.762701, 85.935, 4104
17:57:05.762716, 85.9375, 4105
17:57:05.762730, 85.94, 4120
17:57:05.767975, 85.9425, 4138
17:57:05.768055, 85.945, 4108
17:57:05.768093, 85.9475, 4140
17:57:05.768128, 85.95, 4145
17:57:05.797195, 85.9525, 4128
17:57:05.797276, 85.955, 4153
17:57:05.797306, 85.9575, 4150
17:57:05.797331, 85.96, 4152
17:57:05.797757, 85.9625, 4164
17:57:05.797789, 85.965, 4184
17:57:05.797814, 85.9675, 4182
17:57:05.797838, 85.97, 4205
17:57:05.802988, 85.9725, 4204
17:57:05.803038, 85.975, 4210
17:57:05.803053, 85.9775, 4206
17:57:05.803067, 85.98, 4096
17:57:05.827835, 85.9825, 4216
17:57:05.827895, 85.985, 4211
17:57:05.827917, 85.9875, 4212
17:57:05.827937, 85.99, 4230
17:57:05.828254, 85.9925, 4229
17:57:05.828275, 85.995, 4212
17:57:05.828290, 85.9975, 4196
17:57:05.828303, 86.0, 4217
17:57:05.838014, 86.0025, 4247
17:57:05.838082, 86.005, 4226
17:57:05.838123, 86.0075, 4243
17:57:05.838161, 86.01, 4236
17:57:05.859087, 86.0125, 4218
17:57:05.859199, 86.015, 4192
17:57:05.859224, 86.0175, 4232
17:57:05.859244, 86.02, 4221
17:57:05.859264, 86.0225, 4228
17:57:05.893931, 86.025, 4221
17:57:05.894003, 86.0275, 4222
17:57:05.894029, 86.03, 4213
17:57:05.894048, 86.0325, 4171
17:57:05.894486, 86.035, 4202
17:57:05.894514, 86.0375, 4199
17:57:05.894529, 86.04, 4207
17:57:05.894544, 86.0425, 4194
17:57:05.894804, 86.045, 4218
17:57:05.894823, 86.0475, 4212
17:57:05.894883, 86.05, 4156
17:57:05.894902, 86.0525, 4221
17:57:05.895163, 86.055, 4194
17:57:05.895189, 86.0575, 4148
17:57:05.895214, 86.06, 4148
17:57:05.895232, 86.0625, 4193
17:57:05.898876, 86.065, 4190
17:57:05.898901, 86.0675, 4168
17:57:05.898916, 86.07, 4192
17:57:05.898931, 86.0725, 4180
17:57:05.908039, 86.075, 4173
17:57:05.908083, 86.0775, 4188
17:57:05.908104, 86.08, 4212
17:57:05.908123, 86.0825, 4209
17:57:05.932529, 86.085, 4158
17:57:05.932586, 86.0875, 4186
17:57:05.932607, 86.09, 4196
17:57:05.932626, 86.0925, 4169
17:57:05.932957, 86.095, 4178
17:57:05.932982, 86.0975, 4189
17:57:05.932997, 86.1, 4183
17:57:05.933012, 86.1025, 4139
17:57:05.933026, 86.105, 4183
17:57:05.933892, 86.1075, 4164
17:57:05.933943, 86.11, 4185
17:57:05.933973, 86.1125, 4192
17:57:05.934003, 86.115, 4177
17:57:05.963611, 86.1175, 4187
17:57:05.963728, 86.12, 4155
17:57:05.963765, 86.1225, 4189
17:57:05.963796, 86.125, 4198
17:57:05.964281, 86.1275, 4181
17:57:05.964312, 86.13, 4170
17:57:05.964335, 86.1325, 4183
17:57:05.964356, 86.135, 4186
17:57:05.969497, 86.1375, 4166
17:57:05.969583, 86.14, 4209
17:57:05.969634, 86.1425, 4195
17:57:05.969681, 86.145, 4178
17:57:05.993225, 86.1475, 4174
17:57:05.993312, 86.15, 4208
17:57:05.993338, 86.1525, 4210
17:57:05.993359, 86.155, 4163
17:57:05.993727, 86.1575, 4187
17:57:05.993757, 86.16, 4173
17:57:05.993772, 86.1625, 4180
17:57:05.993787, 86.165, 4210
17:57:05.995114, 86.1675, 4209
17:57:05.995157, 86.17, 4197
17:57:05.995179, 86.1725, 4144
17:57:05.995201, 86.175, 4188
17:57:06.027594, 86.1775, 4182
17:57:06.027656, 86.18, 4185
17:57:06.027679, 86.1825, 4186
17:57:06.027698, 86.185, 4186
17:57:06.027717, 86.1875, 4215
17:57:06.028096, 86.19, 4187
17:57:06.028126, 86.1925, 4191
17:57:06.028141, 86.195, 4146
17:57:06.028156, 86.1975, 4133
17:57:06.029979, 86.2, 4151
17:57:06.030008, 86.2025, 4153
17:57:06.030023, 86.205, 4153
17:57:06.030037, 86.2075, 4131
17:57:06.039189, 86.21, 4174
17:57:06.039276, 86.2125, 4171
17:57:06.039322, 86.215, 4149
17:57:06.039366, 86.2175, 4180
17:57:06.064128, 86.22, 4168
17:57:06.064185, 86.2225, 4175
17:57:06.064208, 86.225, 4134
17:57:06.064255, 86.2275, 4159
17:57:06.076899, 86.23, 4160
17:57:06.077039, 86.2325, 4171
17:57:06.077061, 86.235, 4167
17:57:06.077078, 86.2375, 4171
17:57:06.096083, 86.24, 4172
17:57:06.096164, 86.2425, 4167
17:57:06.096187, 86.245, 4194
17:57:06.096207, 86.2475, 4181
17:57:06.096226, 86.25, 4157
17:57:06.096538, 86.2525, 4168
17:57:06.096559, 86.255, 4180
17:57:06.096575, 86.2575, 4161
17:57:06.096589, 86.26, 4056
17:57:06.096846, 86.2625, 4211
17:57:06.096865, 86.265, 4196
17:57:06.096880, 86.2675, 4167
17:57:06.096894, 86.27, 4196
17:57:06.099985, 86.2725, 4212
17:57:06.100013, 86.275, 4196
17:57:06.100029, 86.2775, 4142
17:57:06.100044, 86.28, 4178
17:57:06.109321, 86.2825, 4177
17:57:06.109372, 86.285, 4174
17:57:06.109404, 86.2875, 4173
17:57:06.109430, 86.29, 4165
17:57:06.129187, 86.2925, 4158
17:57:06.129284, 86.295, 4111
17:57:06.129370, 86.2975, 4162
17:57:06.129436, 86.3, 4132
17:57:06.135351, 86.3025, 4129
17:57:06.135437, 86.305, 4134
17:57:06.135470, 86.3075, 4166
17:57:06.135500, 86.31, 4167
17:57:06.160669, 86.3125, 4138
17:57:06.160754, 86.315, 4188
17:57:06.160777, 86.3175, 4190
17:57:06.160798, 86.32, 4156
17:57:06.160818, 86.3225, 4168
17:57:06.163632, 86.325, 4168
17:57:06.163683, 86.3275, 4161
17:57:06.163707, 86.33, 4138
17:57:06.163730, 86.3325, 4168
17:57:06.164872, 86.335, 4177
17:57:06.164904, 86.3375, 4176
17:57:06.164926, 86.34, 4188
17:57:06.164948, 86.3425, 4181
17:57:06.195522, 86.345, 4182
17:57:06.195659, 86.3475, 4070
17:57:06.195716, 86.35, 4188
17:57:06.195744, 86.3525, 4183
17:57:06.196176, 86.355, 4167
17:57:06.196218, 86.3575, 4171
17:57:06.196239, 86.36, 4168
17:57:06.196258, 86.3625, 4176
17:57:06.196603, 86.365, 4149
17:57:06.196642, 86.3675, 4170
17:57:06.196662, 86.37, 4159
17:57:06.196680, 86.3725, 4164
17:57:06.205360, 86.375, 4164
17:57:06.205426, 86.3775, 4179
17:57:06.205463, 86.38, 4171
17:57:06.205497, 86.3825, 4163
17:57:06.232477, 86.385, 4190
17:57:06.232559, 86.3875, 4192
17:57:06.232581, 86.39, 4184
17:57:06.232598, 86.3925, 4160
17:57:06.232869, 86.395, 4166
17:57:06.232893, 86.3975, 4163
17:57:06.232908, 86.4, 4137
17:57:06.232922, 86.4025, 4178
17:57:06.232937, 86.405, 4175
17:57:06.240628, 86.4075, 4158
17:57:06.240720, 86.41, 4164
17:57:06.240776, 86.4125, 4164
17:57:06.240827, 86.415, 4136
17:57:06.265428, 86.4175, 4126
17:57:06.265518, 86.42, 4167
17:57:06.265542, 86.4225, 4183
17:57:06.265563, 86.425, 4166
17:57:06.265876, 86.4275, 4167
17:57:06.265898, 86.43, 4150
17:57:06.265913, 86.4325, 4167
17:57:06.265928, 86.435, 4142
17:57:06.266240, 86.4375, 4168
17:57:06.266261, 86.44, 4164
17:57:06.266276, 86.4425, 4160
17:57:06.266291, 86.445, 4167
17:57:06.275131, 86.4475, 4180
17:57:06.275160, 86.45, 4172
17:57:06.275176, 86.4525, 4140
17:57:06.275191, 86.455, 4187
17:57:06.303834, 86.4575, 4191
17:57:06.303905, 86.46, 4161
17:57:06.303942, 86.4625, 4163
17:57:06.303985, 86.465, 4154
17:57:06.305035, 86.4675, 4169
17:57:06.305081, 86.47, 4147
17:57:06.305114, 86.4725, 4165
17:57:06.305145, 86.475, 4160
17:57:06.305176, 86.4775, 4141
17:57:06.310906, 86.48, 4148
17:57:06.311029, 86.4825, 4160
17:57:06.311079, 86.485, 4163
17:57:06.311100, 86.4875, 4040
17:57:06.329826, 86.49, 4163
17:57:06.329894, 86.4925, 4175
17:57:06.329918, 86.495, 4158
17:57:06.329939, 86.4975, 4136
17:57:06.330307, 86.5, 4170
17:57:06.330332, 86.5025, 4150
17:57:06.330348, 86.505, 4102
17:57:06.330362, 86.5075, 4131
17:57:06.336952, 86.51, 4126
17:57:06.337024, 86.5125, 4140
17:57:06.337068, 86.515, 4165
17:57:06.337109, 86.5175, 4172
17:57:06.366363, 86.52, 4159
17:57:06.366445, 86.5225, 4139
17:57:06.366470, 86.525, 4197
17:57:06.366491, 86.5275, 4168
17:57:06.366826, 86.53, 4147
17:57:06.366864, 86.5325, 4174
17:57:06.366882, 86.535, 4180
17:57:06.366897, 86.5375, 4183
17:57:06.400811, 86.54, 4156
17:57:06.400866, 86.5425, 4194
17:57:06.400913, 86.545, 4175
17:57:06.400937, 86.5475, 4127
17:57:06.401252, 86.55, 4151
17:57:06.401276, 86.5525, 4160
17:57:06.401292, 86.555, 4151
17:57:06.401307, 86.5575, 4121
17:57:06.401574, 86.56, 4189
17:57:06.401594, 86.5625, 4189
17:57:06.401609, 86.565, 4177
17:57:06.401624, 86.5675, 4164
17:57:06.401891, 86.57, 4180
17:57:06.401910, 86.5725, 4179
17:57:06.401926, 86.575, 4156
17:57:06.401941, 86.5775, 4212
17:57:06.434181, 86.58, 4191
17:57:06.434238, 86.5825, 4134
17:57:06.434261, 86.585, 4156
17:57:06.434281, 86.5875, 4169
17:57:06.434623, 86.59, 4170
17:57:06.434651, 86.5925, 4162
17:57:06.434667, 86.595, 4162
17:57:06.434682, 86.5975, 4154
17:57:06.434697, 86.6, 4168
17:57:06.434987, 86.6025, 4153
17:57:06.435008, 86.605, 4176
17:57:06.435024, 86.6075, 4199
17:57:06.435039, 86.61, 4162
17:57:06.441717, 86.6125, 4163
17:57:06.441778, 86.615, 4168
17:57:06.441807, 86.6175, 4145
17:57:06.441835, 86.62, 4149
17:57:06.463736, 86.6225, 4166
17:57:06.463923, 86.625, 4172
17:57:06.463983, 86.6275, 4133
17:57:06.464033, 86.63, 4175
17:57:06.464595, 86.6325, 4184
17:57:06.464643, 86.635, 4169
17:57:06.464671, 86.6375, 4181
17:57:06.464698, 86.64, 4166
17:57:06.476257, 86.6425, 4177
17:57:06.476298, 86.645, 4178
17:57:06.476378, 86.6475, 4194
17:57:06.476431, 86.65, 4143
17:57:06.504085, 86.6525, 4119
17:57:06.504182, 86.655, 4088
17:57:06.504228, 86.6575, 4090
17:57:06.504267, 86.66, 4083
17:57:06.504996, 86.6625, 4047
17:57:06.505052, 86.665, 4094
17:57:06.505089, 86.6675, 4113
17:57:06.505123, 86.67, 4127
17:57:06.505729, 86.6725, 4145
17:57:06.505774, 86.675, 4157
17:57:06.505808, 86.6775, 4148
17:57:06.505841, 86.68, 4120
17:57:06.530455, 86.6825, 4157
17:57:06.530536, 86.685, 4165
17:57:06.530567, 86.6875, 4167
17:57:06.530596, 86.69, 4180
17:57:06.531086, 86.6925, 4175
17:57:06.531119, 86.695, 4181
17:57:06.531136, 86.6975, 4150
17:57:06.531151, 86.7, 4177
17:57:06.531167, 86.7025, 4175
17:57:06.537627, 86.705, 4169
17:57:06.537664, 86.7075, 4177
17:57:06.537680, 86.71, 4188
17:57:06.537696, 86.7125, 4180
17:57:06.568465, 86.715, 4169
17:57:06.568529, 86.7175, 4191
17:57:06.568558, 86.72, 4197
17:57:06.568586, 86.7225, 4188
17:57:06.568950, 86.725, 4199
17:57:06.569010, 86.7275, 4192
17:57:06.569027, 86.73, 4205
17:57:06.569042, 86.7325, 4188
17:57:06.569294, 86.735, 4200
17:57:06.569313, 86.7375, 4165
17:57:06.569327, 86.74, 4164
17:57:06.569341, 86.7425, 4187
17:57:06.572934, 86.745, 4174
17:57:06.573004, 86.7475, 4175
17:57:06.573046, 86.75, 4152
17:57:06.573080, 86.7525, 4185
17:57:06.602696, 86.755, 4208
17:57:06.602790, 86.7575, 4247
17:57:06.602835, 86.76, 4324
17:57:06.602907, 86.7625, 4386
17:57:06.602990, 86.765, 4392
17:57:06.604039, 86.7675, 4412
17:57:06.604122, 86.77, 4455
17:57:06.604178, 86.7725, 4395
17:57:06.604230, 86.775, 4255
17:57:06.607624, 86.7775, 4094
17:57:06.607646, 86.78, 3884
17:57:06.607661, 86.7825, 3600
17:57:06.607675, 86.785, 3290
17:57:06.635339, 86.7875, 2953
17:57:06.635429, 86.79, 2483
17:57:06.635460, 86.7925, 2135
17:57:06.635536, 86.795, 2003
17:57:06.635869, 86.7975, 2041
17:57:06.635893, 86.8, 2241
17:57:06.635909, 86.8025, 2824
17:57:06.635923, 86.805, 3673
17:57:06.636185, 86.8075, 4373
17:57:06.636204, 86.81, 4748
17:57:06.636219, 86.8125, 4858
17:57:06.636234, 86.815, 4814
17:57:06.668490, 86.8175, 4717
17:57:06.668565, 86.82, 4568
17:57:06.668601, 86.8225, 4531
17:57:06.668630, 86.825, 4519
17:57:06.669005, 86.8275, 4486
17:57:06.669034, 86.83, 4467
17:57:06.669052, 86.8325, 4464
17:57:06.669067, 86.835, 4474
17:57:06.669337, 86.8375, 4467
17:57:06.669357, 86.84, 4492
17:57:06.669373, 86.8425, 4502
17:57:06.669387, 86.845, 4508
17:57:06.679161, 86.8475, 4509
17:57:06.679227, 86.85, 4511
17:57:06.679264, 86.8525, 4472
17:57:06.679298, 86.855, 4408
17:57:06.705796, 86.8575, 4427
17:57:06.705871, 86.86, 4424
17:57:06.705919, 86.8625, 4386
17:57:06.706045, 86.865, 4410
17:57:06.706749, 86.8675, 4415
17:57:06.706804, 86.87, 4398
17:57:06.706878, 86.8725, 4383
17:57:06.706955, 86.875, 4387
17:57:06.707008, 86.8775, 4363
17:57:06.731253, 86.88, 4342
17:57:06.731331, 86.8825, 4345
17:57:06.731363, 86.885, 4352
17:57:06.731392, 86.8875, 4343
17:57:06.732262, 86.89, 4310
17:57:06.732294, 86.8925, 4322
17:57:06.732311, 86.895, 4311
17:57:06.732325, 86.8975, 4325
17:57:06.733352, 86.9, 4321
17:57:06.733373, 86.9025, 4299
17:57:06.733388, 86.905, 4299
17:57:06.733403, 86.9075, 4285
17:57:06.739558, 86.91, 4334
17:57:06.739641, 86.9125, 4307
17:57:06.739691, 86.915, 4303
17:57:06.739736, 86.9175, 4298
17:57:06.764161, 86.92, 4294
17:57:06.764308, 86.9225, 4283
17:57:06.764347, 86.925, 4245
17:57:06.764388, 86.9275, 4284
17:57:06.764831, 86.93, 4279
17:57:06.764884, 86.9325, 4275
17:57:06.764908, 86.935, 4266
17:57:06.764928, 86.9375, 4272
17:57:06.774063, 86.94, 4261
17:57:06.774117, 86.9425, 4210
17:57:06.774144, 86.945, 4231
17:57:06.774170, 86.9475, 4247
17:57:06.800383, 86.95, 4233
17:57:06.800455, 86.9525, 4242
17:57:06.800506, 86.955, 4230
17:57:06.800529, 86.9575, 4230
17:57:06.800831, 86.96, 4202
17:57:06.800851, 86.9625, 4213
17:57:06.800865, 86.965, 4202
17:57:06.800879, 86.9675, 4191
17:57:06.800892, 86.97, 4182
17:57:06.801133, 86.9725, 4196
17:57:06.801151, 86.975, 4210
17:57:06.801164, 86.9775, 4089
17:57:06.801178, 86.98, 4227
17:57:06.808860, 86.9825, 4217
17:57:06.808905, 86.985, 4209
17:57:06.808929, 86.9875, 4204
17:57:06.808951, 86.99, 4189
17:57:06.831620, 86.9925, 4184
17:57:06.831705, 86.995, 4175
17:57:06.831772, 86.9975, 4219
17:57:06.831796, 87.0, 4212
17:57:06.835049, 87.0025, 4207
17:57:06.835091, 87.005, 4206
17:57:06.835111, 87.0075, 4213
17:57:06.835130, 87.01, 4186
17:57:06.844267, 87.0125, 4151
17:57:06.844366, 87.015, 4188
17:57:06.844445, 87.0175, 4168
17:57:06.844522, 87.02, 4171
17:57:06.881581, 87.0225, 4172
17:57:06.881650, 87.025, 4184
17:57:06.881672, 87.0275, 4157
17:57:06.881716, 87.03, 4138
17:57:06.882262, 87.0325, 4196
17:57:06.882377, 87.035, 4171
17:57:06.882395, 87.0375, 4174
17:57:06.882413, 87.04, 4182
17:57:06.883553, 87.0425, 4173
17:57:06.883618, 87.045, 4164
17:57:06.883638, 87.0475, 4139
17:57:06.883658, 87.05, 4180
17:57:06.883713, 87.0525, 4159
17:57:06.910252, 87.055, 4150
17:57:06.910304, 87.0575, 4167
17:57:06.910330, 87.06, 4146
17:57:06.910352, 87.0625, 4118
17:57:06.911363, 87.065, 4089
17:57:06.911443, 87.0675, 4120
17:57:06.911466, 87.07, 4116
17:57:06.911509, 87.0725, 4103
17:57:06.912891, 87.075, 4119
17:57:06.912928, 87.0775, 4116
17:57:06.912948, 87.08, 4116
17:57:06.912965, 87.0825, 4079
17:57:06.936591, 87.085, 4091
17:57:06.936655, 87.0875, 4098
17:57:06.936677, 87.09, 4086
17:57:06.936760, 87.0925, 4082
17:57:06.938023, 87.095, 4112
17:57:06.938067, 87.0975, 4113
17:57:06.938087, 87.1, 4098
17:57:06.938105, 87.1025, 4131
17:57:06.963771, 87.105, 4174
17:57:06.963898, 87.1075, 4151
17:57:06.963925, 87.11, 4177
17:57:06.963946, 87.1125, 4165
17:57:06.964382, 87.115, 4172
17:57:06.964422, 87.1175, 4201
17:57:06.964438, 87.12, 4224
17:57:06.964453, 87.1225, 4207
17:57:06.964467, 87.125, 4218
17:57:06.964762, 87.1275, 4238
17:57:06.964809, 87.13, 4216
17:57:06.964845, 87.1325, 4229
17:57:06.964860, 87.135, 4195
17:57:06.967296, 87.1375, 4262
17:57:06.967339, 87.14, 4251
17:57:06.967358, 87.1425, 4230
17:57:06.967376, 87.145, 4232
17:57:06.992223, 87.1475, 4224
17:57:06.992303, 87.15, 4218
17:57:06.992327, 87.1525, 4217
17:57:06.992346, 87.155, 4253
17:57:06.993737, 87.1575, 4252
17:57:06.993788, 87.16, 4240
17:57:06.993811, 87.1625, 4242
17:57:06.993829, 87.165, 4233
17:57:07.018877, 87.1675, 4226
17:57:07.018984, 87.17, 4193
17:57:07.019009, 87.1725, 4215
17:57:07.019029, 87.175, 4210
17:57:07.019048, 87.1775, 4240
17:57:07.021540, 87.18, 4243
17:57:07.021578, 87.1825, 4251
17:57:07.021599, 87.185, 4241
17:57:07.045286, 87.1875, 4218
17:57:07.045341, 87.19, 4234
17:57:07.045363, 87.1925, 4228
17:57:07.045391, 87.195, 4217
17:57:07.045419, 87.1975, 4205
17:57:07.046344, 87.2, 4225
17:57:07.046378, 87.2025, 4213
17:57:07.046422, 87.205, 4094
17:57:07.046478, 87.2075, 4240
17:57:07.047647, 87.21, 4229
17:57:07.047669, 87.2125, 4210
17:57:07.047683, 87.215, 4210
17:57:07.047703, 87.2175, 4231
17:57:07.068356, 87.22, 4201
17:57:07.068421, 87.2225, 4158
17:57:07.068492, 87.225, 4205
17:57:07.068538, 87.2275, 4189
17:57:07.070126, 87.23, 4183
17:57:07.070219, 87.2325, 4193
17:57:07.070259, 87.235, 4207
17:57:07.070286, 87.2375, 4183
17:57:07.095330, 87.24, 4164
17:57:07.095418, 87.2425, 4200
17:57:07.095443, 87.245, 4218
17:57:07.095486, 87.2475, 4187
17:57:07.095757, 87.25, 4171
17:57:07.095779, 87.2525, 4187
17:57:07.095794, 87.255, 4183
17:57:07.095808, 87.2575, 4160
17:57:07.096056, 87.26, 4192
17:57:07.096075, 87.2625, 4184
17:57:07.096118, 87.265, 4149
17:57:07.096139, 87.2675, 4185
17:57:07.098767, 87.27, 4183
17:57:07.098813, 87.2725, 4169
17:57:07.098833, 87.275, 4122
17:57:07.098877, 87.2775, 4168
17:57:07.117207, 87.28, 4185
17:57:07.117267, 87.2825, 4174
17:57:07.117291, 87.285, 4181
17:57:07.117313, 87.2875, 4187
17:57:07.117333, 87.29, 4169
17:57:07.124003, 87.2925, 4178
17:57:07.124048, 87.295, 4167
17:57:07.124073, 87.2975, 4160
17:57:07.124096, 87.3, 4168
17:57:07.133912, 87.3025, 4187
17:57:07.133994, 87.305, 4168
17:57:07.134027, 87.3075, 4132
17:57:07.134057, 87.31, 4100
17:57:07.153878, 87.3125, 4157
17:57:07.153979, 87.315, 4176
17:57:07.154020, 87.3175, 4134
17:57:07.154058, 87.32, 4170
17:57:07.155155, 87.3225, 4157
17:57:07.155233, 87.325, 4159
17:57:07.155287, 87.3275, 4142
17:57:07.155337, 87.33, 4157
17:57:07.159136, 87.3325, 4182
17:57:07.159161, 87.335, 4155
17:57:07.159178, 87.3375, 4162
17:57:07.159193, 87.34, 4163
17:57:07.182382, 87.3425, 4170
17:57:07.182479, 87.345, 4147
17:57:07.182502, 87.3475, 4178
17:57:07.182520, 87.35, 4156
17:57:07.182539, 87.3525, 4179
17:57:07.185183, 87.355, 4171
17:57:07.185226, 87.3575, 4159
17:57:07.185247, 87.36, 4193
17:57:07.194361, 87.3625, 4170
17:57:07.194458, 87.365, 4200
17:57:07.194516, 87.3675, 4162
17:57:07.194568, 87.37, 4142
17:57:07.194618, 87.3725, 4137
17:57:07.217694, 87.375, 4129
17:57:07.217777, 87.3775, 4151
17:57:07.217813, 87.38, 4150
17:57:07.217839, 87.3825, 4179
17:57:07.218209, 87.385, 4164
17:57:07.218237, 87.3875, 4155
17:57:07.218253, 87.39, 4162
17:57:07.218269, 87.3925, 4173
17:57:07.220205, 87.395, 4179
17:57:07.220237, 87.3975, 4135
17:57:07.220259, 87.4, 4154
17:57:07.220280, 87.4025, 4169
17:57:07.255917, 87.405, 4154
17:57:07.256005, 87.4075, 4165
17:57:07.256030, 87.41, 4164
17:57:07.256049, 87.4125, 4173
17:57:07.256354, 87.415, 4154
17:57:07.256380, 87.4175, 4177
17:57:07.256394, 87.42, 4182
17:57:07.256408, 87.4225, 4181
17:57:07.256648, 87.425, 4159
17:57:07.256666, 87.4275, 4125
17:57:07.256680, 87.43, 4121
17:57:07.256694, 87.4325, 4092
17:57:07.297873, 87.435, 4148
17:57:07.297941, 87.4375, 4171
17:57:07.297976, 87.44, 4181
17:57:07.297996, 87.4425, 4180
17:57:07.299273, 87.445, 4188
17:57:07.299325, 87.4475, 4183
17:57:07.299348, 87.45, 4174
17:57:07.299379, 87.4525, 4196
17:57:07.300516, 87.455, 4182
17:57:07.300569, 87.4575, 4168
17:57:07.300588, 87.46, 4163
17:57:07.300602, 87.4625, 4163
17:57:07.300616, 87.465, 4154
17:57:07.324210, 87.4675, 4150
17:57:07.324261, 87.47, 4173
17:57:07.324328, 87.4725, 4162
17:57:07.324376, 87.475, 4179
17:57:07.325195, 87.4775, 4187
17:57:07.325233, 87.48, 4189
17:57:07.325271, 87.4825, 4165
17:57:07.325292, 87.485, 4151
17:57:07.326155, 87.4875, 4213
17:57:07.326184, 87.49, 4183
17:57:07.326202, 87.4925, 4180
17:57:07.326239, 87.495, 4182
17:57:07.326974, 87.4975, 4204
17:57:07.327002, 87.5, 4206
17:57:07.327017, 87.5025, 4142
17:57:07.327031, 87.505, 4190
17:57:07.344765, 87.5075, 4154
17:57:07.344861, 87.51, 4171
17:57:07.344897, 87.5125, 4180
17:57:07.344927, 87.515, 4155
17:57:07.379398, 87.5175, 4164
17:57:07.379450, 87.52, 4146
17:57:07.379473, 87.5225, 4159
17:57:07.379532, 87.525, 4148
17:57:07.379819, 87.5275, 4153
17:57:07.379842, 87.53, 4146
17:57:07.379856, 87.5325, 4189
17:57:07.379870, 87.535, 4194
17:57:07.379884, 87.5375, 4157
17:57:07.380126, 87.54, 4180
17:57:07.380144, 87.5425, 4193
17:57:07.380158, 87.545, 4177
17:57:07.380171, 87.5475, 4200
17:57:07.380413, 87.55, 4194
17:57:07.380430, 87.5525, 4170
17:57:07.380443, 87.555, 4121
17:57:07.380457, 87.5575, 4142
17:57:07.408045, 87.56, 4146
17:57:07.408136, 87.5625, 4160
17:57:07.408180, 87.565, 4167
17:57:07.408199, 87.5675, 4184
17:57:07.417204, 87.57, 4173
17:57:07.417291, 87.5725, 4143
17:57:07.417353, 87.575, 4177
17:57:07.417399, 87.5775, 4185
17:57:07.418427, 87.58, 4184
17:57:07.418498, 87.5825, 4196
17:57:07.418530, 87.585, 4182
17:57:07.418556, 87.5875, 4167
17:57:07.442916, 87.59, 4134
17:57:07.442970, 87.5925, 4182
17:57:07.442992, 87.595, 4200
17:57:07.443011, 87.5975, 4175
17:57:07.443367, 87.6, 4162
17:57:07.443391, 87.6025, 4216
17:57:07.443406, 87.605, 4180
17:57:07.443419, 87.6075, 4161
17:57:07.443433, 87.61, 4191
17:57:07.467286, 87.6125, 4177
17:57:07.467418, 87.615, 4178
17:57:07.467461, 87.6175, 4202
17:57:07.467491, 87.62, 4163
17:57:07.467950, 87.6225, 4173
17:57:07.467988, 87.625, 4132
17:57:07.468010, 87.6275, 4181
17:57:07.468030, 87.63, 4168
17:57:07.468388, 87.6325, 4178
17:57:07.468419, 87.635, 4170
17:57:07.468439, 87.6375, 4204
17:57:07.468459, 87.64, 4211
17:57:07.473851, 87.6425, 4098
17:57:07.473898, 87.645, 4227
17:57:07.473923, 87.6475, 4183
17:57:07.473946, 87.65, 4166
17:57:07.483328, 87.6525, 4172
17:57:07.483406, 87.655, 4141
17:57:07.483438, 87.6575, 4143
17:57:07.483467, 87.66, 4116
17:57:07.505747, 87.6625, 4172
17:57:07.505845, 87.665, 4167
17:57:07.505921, 87.6675, 4159
17:57:07.505975, 87.67, 4202
17:57:07.508827, 87.6725, 4168
17:57:07.508867, 87.675, 4156
17:57:07.508895, 87.6775, 4113
17:57:07.508921, 87.68, 4136
17:57:07.537237, 87.6825, 4111
17:57:07.537336, 87.685, 4128
17:57:07.537425, 87.6875, 4078
17:57:07.537465, 87.69, 4112
17:57:07.538048, 87.6925, 4112
17:57:07.538087, 87.695, 4101
17:57:07.538114, 87.6975, 4150
17:57:07.538140, 87.7, 4182
17:57:07.538166, 87.7025, 4158
17:57:07.538611, 87.705, 4162
17:57:07.538645, 87.7075, 4171
17:57:07.538670, 87.71, 4170
17:57:07.538695, 87.7125, 4140
17:57:07.543745, 87.715, 4168
17:57:07.543782, 87.7175, 4165
17:57:07.543799, 87.72, 4181
17:57:07.543815, 87.7225, 4187
17:57:07.572222, 87.725, 4192
17:57:07.572315, 87.7275, 4182
17:57:07.572353, 87.73, 4155
17:57:07.572386, 87.7325, 4180
17:57:07.573346, 87.735, 4182
17:57:07.573424, 87.7375, 4190
17:57:07.573479, 87.74, 4217
17:57:07.573596, 87.7425, 4220
17:57:07.579135, 87.745, 4204
17:57:07.579156, 87.7475, 4084
17:57:07.579171, 87.75, 4220
17:57:07.579185, 87.7525, 4215
17:57:07.602681, 87.755, 4208
17:57:07.602757, 87.7575, 4192
17:57:07.602793, 87.76, 4192
17:57:07.602814, 87.7625, 4183
17:57:07.603376, 87.765, 4162
17:57:07.603434, 87.7675, 4182
17:57:07.603458, 87.77, 4170
17:57:07.603482, 87.7725, 4173
17:57:07.603507, 87.775, 4173
17:57:07.605256, 87.7775, 4201
17:57:07.605299, 87.78, 4200
17:57:07.605323, 87.7825, 4148
17:57:07.605345, 87.785, 4354
17:57:07.614481, 87.7875, 4388
17:57:07.614599, 87.79, 4374
17:57:07.614657, 87.7925, 4417
17:57:07.614721, 87.795, 4421
17:57:07.635089, 87.7975, 4326
17:57:07.635195, 87.8, 4134
17:57:07.635224, 87.8025, 3984
17:57:07.635244, 87.805, 3765
17:57:07.640438, 87.8075, 3468
17:57:07.640525, 87.81, 3231
17:57:07.640563, 87.8125, 2885
17:57:07.640596, 87.815, 2402
17:57:07.649172, 87.8175, 2110
17:57:07.649233, 87.82, 1965
17:57:07.649270, 87.8225, 2040
17:57:07.649298, 87.825, 2323
17:57:07.671793, 87.8275, 2960
17:57:07.671922, 87.83, 3822
17:57:07.671990, 87.8325, 4561
17:57:07.672024, 87.835, 4846
17:57:07.672684, 87.8375, 4915
17:57:07.672732, 87.84, 4853
17:57:07.672765, 87.8425, 4740
17:57:07.672796, 87.845, 4640
17:57:07.675206, 87.8475, 4551
17:57:07.675228, 87.85, 4520
17:57:07.675243, 87.8525, 4370
17:57:07.675256, 87.855, 4460
17:57:07.684362, 87.8575, 4463
17:57:07.684433, 87.86, 4436
17:57:07.684456, 87.8625, 4438
17:57:07.684475, 87.865, 4426
17:57:07.704816, 87.8675, 4424
17:57:07.704907, 87.87, 4405
17:57:07.704948, 87.8725, 4436
17:57:07.704982, 87.875, 4413
17:57:07.710163, 87.8775, 4409
17:57:07.710206, 87.88, 4410
17:57:07.710231, 87.8825, 4402
17:57:07.710256, 87.885, 4406
17:57:07.739316, 87.8875, 4368
17:57:07.739402, 87.89, 4390
17:57:07.739509, 87.8925, 4381
17:57:07.739598, 87.895, 4361
17:57:07.740242, 87.8975, 4354
17:57:07.740284, 87.9, 4361
17:57:07.740314, 87.9025, 4353
17:57:07.740341, 87.905, 4311
17:57:07.740368, 87.9075, 4335
17:57:07.740880, 87.91, 4333
17:57:07.740919, 87.9125, 4324
17:57:07.740946, 87.915, 4320
17:57:07.740973, 87.9175, 4289
17:57:07.745407, 87.92, 4282
17:57:07.745461, 87.9225, 4209
17:57:07.745495, 87.925, 4305
17:57:07.745528, 87.9275, 4317
17:57:07.770500, 87.93, 4292
17:57:07.770635, 87.9325, 4278
17:57:07.770676, 87.935, 4265
17:57:07.770703, 87.9375, 4283
17:57:07.771532, 87.94, 4260
17:57:07.771580, 87.9425, 4276
17:57:07.771596, 87.945, 4265
17:57:07.771623, 87.9475, 4256
17:57:07.780606, 87.95, 4273
17:57:07.780688, 87.9525, 4258
17:57:07.780742, 87.955, 4229
17:57:07.780793, 87.9575, 4193
17:57:07.804515, 87.96, 4228
17:57:07.804593, 87.9625, 4214
17:57:07.804623, 87.965, 4227
17:57:07.804644, 87.9675, 4212
17:57:07.804989, 87.97, 4241
17:57:07.805011, 87.9725, 4208
17:57:07.805027, 87.975, 4165
17:57:07.805042, 87.9775, 4182
17:57:07.815640, 87.98, 4177
17:57:07.815688, 87.9825, 4185
17:57:07.815709, 87.985, 4180
17:57:07.815729, 87.9875, 4180
17:57:07.838077, 87.99, 4183
17:57:07.838173, 87.9925, 4185
17:57:07.838199, 87.995, 4199
17:57:07.838220, 87.9975, 4192
17:57:07.838269, 88.0, 4200
17:57:07.838551, 88.0025, 4216
17:57:07.838573, 88.005, 4193
17:57:07.838588, 88.0075, 4174
17:57:07.838602, 88.01, 4137
17:57:07.841480, 88.0125, 4167
17:57:07.841503, 88.015, 4144
17:57:07.841518, 88.0175, 4165
17:57:07.841533, 88.02, 4165
17:57:07.850486, 88.0225, 4179
17:57:07.850528, 88.025, 4183
17:57:07.850547, 88.0275, 4145
17:57:07.850708, 88.03, 4178
17:57:07.874592, 88.0325, 4183
17:57:07.874675, 88.035, 4155
17:57:07.874707, 88.0375, 4194
17:57:07.874735, 88.04, 4186
17:57:07.876348, 88.0425, 4170
17:57:07.876387, 88.045, 4156
17:57:07.876410, 88.0475, 4171
17:57:07.876430, 88.05, 4151
17:57:07.904460, 88.0525, 4153
17:57:07.904609, 88.055, 4162
17:57:07.904660, 88.0575, 4146
17:57:07.904698, 88.06, 4150
17:57:07.905278, 88.0625, 4126
17:57:07.905326, 88.065, 4161
17:57:07.905349, 88.0675, 4155
17:57:07.905371, 88.07, 4139
17:57:07.905754, 88.0725, 4128
17:57:07.905783, 88.075, 4136
17:57:07.905805, 88.0775, 4134
17:57:07.905827, 88.08, 4118
17:57:07.912062, 88.0825, 4170
17:57:07.912147, 88.085, 4162
17:57:07.912194, 88.0875, 4124
17:57:07.912238, 88.09, 4114
17:57:07.912284, 88.0925, 4123
17:57:07.937050, 88.095, 4127
17:57:07.937181, 88.0975, 4097
17:57:07.937218, 88.1, 4135
17:57:07.937252, 88.1025, 4134
17:57:07.937848, 88.105, 4125
17:57:07.937910, 88.1075, 4127
17:57:07.937938, 88.11, 4112
17:57:07.937962, 88.1125, 4097
17:57:07.946742, 88.115, 4091
17:57:07.946796, 88.1175, 4086
17:57:07.946825, 88.12, 4118
17:57:07.946873, 88.1225, 4125
17:57:07.970259, 88.125, 4157
17:57:07.970346, 88.1275, 4156
17:57:07.970379, 88.13, 4162
17:57:07.970409, 88.1325, 4125
17:57:07.970962, 88.135, 4177
17:57:07.971005, 88.1375, 4170
17:57:07.971029, 88.14, 4191
17:57:07.971050, 88.1425, 4211
17:57:07.972719, 88.145, 4215
17:57:07.972767, 88.1475, 4242
17:57:07.972791, 88.15, 4212
17:57:07.972812, 88.1525, 4241
17:57:08.008977, 88.155, 4235
17:57:08.009098, 88.1575, 4234
17:57:08.009134, 88.16, 4230
17:57:08.009161, 88.1625, 4200
17:57:08.009589, 88.165, 4219
17:57:08.009618, 88.1675, 4213
17:57:08.009639, 88.17, 4241
17:57:08.009659, 88.1725, 4229
17:57:08.009679, 88.175, 4225
17:57:08.010041, 88.1775, 4228
17:57:08.010068, 88.18, 4234
17:57:08.010089, 88.1825, 4235
17:57:08.010109, 88.185, 4214
17:57:08.041151, 88.1875, 4259
17:57:08.041292, 88.19, 4225
17:57:08.041334, 88.1925, 4238
17:57:08.041367, 88.195, 4203
17:57:08.041903, 88.1975, 4228
17:57:08.041940, 88.2, 4214
17:57:08.041966, 88.2025, 4176
17:57:08.041990, 88.205, 4222
17:57:08.043153, 88.2075, 4198
17:57:08.043186, 88.21, 4197
17:57:08.043211, 88.2125, 4195
17:57:08.043235, 88.215, 4229
17:57:08.052378, 88.2175, 4224
17:57:08.052455, 88.22, 4206
17:57:08.052479, 88.2225, 4201
17:57:08.052499, 88.225, 4189
17:57:08.074446, 88.2275, 4210
17:57:08.074516, 88.23, 4199
17:57:08.074546, 88.2325, 4193
17:57:08.074572, 88.235, 4184
17:57:08.074597, 88.2375, 4180
17:57:08.075270, 88.24, 4191
17:57:08.075319, 88.2425, 4189
17:57:08.075352, 88.245, 4178
17:57:08.075385, 88.2475, 4178
17:57:08.077871, 88.25, 4172
17:57:08.077915, 88.2525, 4169
17:57:08.077948, 88.255, 4160
17:57:08.077979, 88.2575, 4205
17:57:08.087069, 88.26, 4205
17:57:08.087143, 88.2625, 4197
17:57:08.087164, 88.265, 4199
17:57:08.087182, 88.2675, 4195
17:57:08.107679, 88.27, 4186
17:57:08.107736, 88.2725, 4143
17:57:08.107758, 88.275, 4179
17:57:08.107779, 88.2775, 4177
17:57:08.107798, 88.28, 4178
17:57:08.112602, 88.2825, 4187
17:57:08.112661, 88.285, 4169
17:57:08.112709, 88.2875, 4180
17:57:08.140958, 88.29, 4165
17:57:08.141021, 88.2925, 4186
17:57:08.141075, 88.295, 4167
17:57:08.141098, 88.2975, 4167
17:57:08.141419, 88.3, 4207
17:57:08.141441, 88.3025, 4185
17:57:08.141457, 88.305, 4182
17:57:08.141472, 88.3075, 4165
17:57:08.141488, 88.31, 4188
17:57:08.141755, 88.3125, 4170
17:57:08.141776, 88.315, 4140
17:57:08.141791, 88.3175, 4174
17:57:08.141806, 88.32, 4182
17:57:08.174678, 88.3225, 4188
17:57:08.174769, 88.325, 4148
17:57:08.174794, 88.3275, 4180
17:57:08.174814, 88.33, 4132
17:57:08.175136, 88.3325, 4144
17:57:08.175158, 88.335, 4146
17:57:08.175173, 88.3375, 4150
17:57:08.175188, 88.34, 4155
17:57:08.175446, 88.3425, 4127
17:57:08.175465, 88.345, 4175
17:57:08.175481, 88.3475, 4176
17:57:08.175496, 88.35, 4161
17:57:08.183155, 88.3525, 4193
17:57:08.183234, 88.355, 4184
17:57:08.183269, 88.3575, 4180
17:57:08.183302, 88.36, 4145
17:57:08.208852, 88.3625, 4173
17:57:08.208933, 88.365, 4180
17:57:08.208966, 88.3675, 4157
17:57:08.208996, 88.37, 4181
17:57:08.209027, 88.3725, 4192
17:57:08.209553, 88.375, 4171
17:57:08.209589, 88.3775, 4173
17:57:08.209614, 88.38, 4182
17:57:08.209638, 88.3825, 4176
17:57:08.241527, 88.385, 4204
17:57:08.241615, 88.3875, 4181
17:57:08.241650, 88.39, 4195
17:57:08.241679, 88.3925, 4186
17:57:08.242223, 88.395, 4167
17:57:08.242263, 88.3975, 4195
17:57:08.242286, 88.4, 4170
17:57:08.242307, 88.4025, 4180
17:57:08.246500, 88.405, 4157
17:57:08.246563, 88.4075, 4180
17:57:08.246604, 88.41, 4193
17:57:08.246641, 88.4125, 4068
17:57:08.247764, 88.415, 4198
17:57:08.247816, 88.4175, 4177
17:57:08.247909, 88.42, 4170
17:57:08.247953, 88.4225, 4171
17:57:08.253337, 88.425, 4175
17:57:08.253381, 88.4275, 4171
17:57:08.253401, 88.43, 4038
17:57:08.253455, 88.4325, 4170
17:57:08.273363, 88.435, 4171
17:57:08.273519, 88.4375, 4169
17:57:08.273569, 88.44, 4184
17:57:08.273682, 88.4425, 4197
17:57:08.278859, 88.445, 4177
17:57:08.278890, 88.4475, 4154
17:57:08.278906, 88.45, 4160
17:57:08.278920, 88.4525, 4165
17:57:08.278934, 88.455, 4191
17:57:08.288021, 88.4575, 4200
17:57:08.288104, 88.46, 4178
17:57:08.288127, 88.4625, 4189
17:57:08.288148, 88.465, 4158
17:57:08.308057, 88.4675, 4167
17:57:08.308132, 88.47, 4177
17:57:08.308157, 88.4725, 4183
17:57:08.308178, 88.475, 4179
17:57:08.308577, 88.4775, 4197
17:57:08.308600, 88.48, 4187
17:57:08.308616, 88.4825, 4163
17:57:08.308631, 88.485, 4220
17:57:08.313717, 88.4875, 4225
17:57:08.313740, 88.49, 4206
17:57:08.313756, 88.4925, 4190
17:57:08.313771, 88.495, 4201
17:57:08.342281, 88.4975, 4216
17:57:08.342371, 88.5, 4186
17:57:08.342407, 88.5025, 4206
17:57:08.342436, 88.505, 4194
17:57:08.343038, 88.5075, 4209
17:57:08.343087, 88.51, 4207
17:57:08.343120, 88.5125, 4214
17:57:08.343151, 88.515, 4206
17:57:08.348713, 88.5175, 4159
17:57:08.348734, 88.52, 4193
17:57:08.348749, 88.5225, 4176
17:57:08.348762, 88.525, 4184
17:57:08.348776, 88.5275, 4194
17:57:08.376245, 88.53, 4203
17:57:08.376370, 88.5325, 4204
17:57:08.376430, 88.535, 4135
17:57:08.376463, 88.5375, 4188
17:57:08.377371, 88.54, 4172
17:57:08.377449, 88.5425, 4169
17:57:08.377502, 88.545, 4187
17:57:08.377553, 88.5475, 4184
17:57:08.383716, 88.55, 4165
17:57:08.383745, 88.5525, 4135
17:57:08.383761, 88.555, 4177
17:57:08.383776, 88.5575, 4199
17:57:08.405556, 88.56, 4173
17:57:08.405636, 88.5625, 4174
17:57:08.405662, 88.565, 4186
17:57:08.405720, 88.5675, 4157
17:57:08.406071, 88.57, 4145
17:57:08.406104, 88.5725, 4176
17:57:08.406121, 88.575, 4159
17:57:08.406135, 88.5775, 4145
17:57:08.410113, 88.58, 4177
17:57:08.410162, 88.5825, 4161
17:57:08.410185, 88.585, 4176
17:57:08.410207, 88.5875, 4137
17:57:08.419110, 88.59, 4168
17:57:08.419133, 88.5925, 4179
17:57:08.419147, 88.595, 4166
17:57:08.419161, 88.5975, 4169
17:57:08.440261, 88.6, 4190
17:57:08.440439, 88.6025, 4190
17:57:08.440465, 88.605, 4154
17:57:08.440483, 88.6075, 4188
17:57:08.445098, 88.61, 4169
17:57:08.445135, 88.6125, 4173
17:57:08.445151, 88.615, 4184
17:57:08.445165, 88.6175, 4197
17:57:08.454781, 88.62, 4157
17:57:08.454925, 88.6225, 4133
17:57:08.454980, 88.625, 4171
17:57:08.455026, 88.6275, 4179
17:57:08.455219, 88.63, 4167
17:57:08.476648, 88.6325, 4159
17:57:08.476707, 88.635, 4161
17:57:08.476732, 88.6375, 4151
17:57:08.477075, 88.64, 4123
17:57:08.477099, 88.6425, 4163
17:57:08.477115, 88.645, 4175
17:57:08.477130, 88.6475, 4169
17:57:08.477144, 88.65, 4176
17:57:08.480136, 88.6525, 4175
17:57:08.480175, 88.655, 4179
17:57:08.480201, 88.6575, 4151
17:57:08.480224, 88.66, 4193
17:57:08.508021, 88.6625, 4180
17:57:08.508142, 88.665, 4158
17:57:08.508176, 88.6675, 4170
17:57:08.508250, 88.67, 4181
17:57:08.508839, 88.6725, 4163
17:57:08.508888, 88.675, 4133
17:57:08.508914, 88.6775, 4155
17:57:08.508937, 88.68, 4180
17:57:08.515143, 88.6825, 4180
17:57:08.515176, 88.685, 4164
17:57:08.515192, 88.6875, 4167
17:57:08.515206, 88.69, 4164
17:57:08.543396, 88.6925, 4148
17:57:08.543468, 88.695, 4163
17:57:08.543491, 88.6975, 4151
17:57:08.543511, 88.7, 4158
17:57:08.543915, 88.7025, 4179
17:57:08.543938, 88.705, 4192
17:57:08.543953, 88.7075, 4176
17:57:08.543967, 88.71, 4146
17:57:08.544216, 88.7125, 4167
17:57:08.544235, 88.715, 4174
17:57:08.544250, 88.7175, 4152
17:57:08.544264, 88.72, 4168
17:57:08.550381, 88.7225, 4170
17:57:08.550443, 88.725, 4162
17:57:08.550474, 88.7275, 4148
17:57:08.550503, 88.73, 4156
17:57:08.582334, 88.7325, 4163
17:57:08.582422, 88.735, 4150
17:57:08.582476, 88.7375, 4160
17:57:08.582506, 88.74, 4177
17:57:08.582964, 88.7425, 4165
17:57:08.583008, 88.745, 4165
17:57:08.583037, 88.7475, 4195
17:57:08.583064, 88.75, 4195
17:57:08.583091, 88.7525, 4177
17:57:08.585573, 88.755, 4154
17:57:08.585630, 88.7575, 4155
17:57:08.585725, 88.76, 4164
17:57:08.611163, 88.7625, 4143
17:57:08.611302, 88.765, 4183
17:57:08.611407, 88.7675, 4193
17:57:08.611483, 88.77, 4165
17:57:08.611598, 88.7725, 4177
17:57:08.612948, 88.775, 4173
17:57:08.613054, 88.7775, 4169
17:57:08.613146, 88.78, 4164
17:57:08.613233, 88.7825, 4172
17:57:08.615654, 88.785, 4173
17:57:08.615714, 88.7875, 4162
17:57:08.615761, 88.79, 4169
17:57:08.615806, 88.7925, 4171
17:57:08.621496, 88.795, 4156
17:57:08.621586, 88.7975, 4108
17:57:08.621633, 88.8, 4149
17:57:08.621681, 88.8025, 4141
17:57:08.641522, 88.805, 4149
17:57:08.641589, 88.8075, 4169
17:57:08.641628, 88.81, 4161
17:57:08.641664, 88.8125, 4142
17:57:08.646675, 88.815, 4124
17:57:08.646718, 88.8175, 4105
17:57:08.646748, 88.82, 4130
17:57:08.646776, 88.8225, 4120
17:57:08.656336, 88.825, 4130
17:57:08.656397, 88.8275, 4112
17:57:08.656429, 88.83, 4116
17:57:08.656885, 88.8325, 4100
17:57:08.673755, 88.835, 4159
17:57:08.673837, 88.8375, 4150
17:57:08.673874, 88.84, 4143
17:57:08.673914, 88.8425, 4148
17:57:08.673943, 88.845, 4170
17:57:08.674453, 88.8475, 4121
17:57:08.674493, 88.85, 4103
17:57:08.674517, 88.8525, 4165
17:57:08.674541, 88.855, 4173
17:57:08.707068, 88.8575, 4171
17:57:08.707166, 88.86, 4196
17:57:08.707254, 88.8625, 4177
17:57:08.707291, 88.865, 4172
17:57:08.707925, 88.8675, 4148
17:57:08.707978, 88.87, 4150
17:57:08.708006, 88.8725, 4137
17:57:08.708033, 88.875, 4136
17:57:08.708547, 88.8775, 4162
17:57:08.708593, 88.88, 4172
17:57:08.708626, 88.8825, 4175
17:57:08.708659, 88.885, 4128
17:57:08.740472, 88.8875, 4180
17:57:08.740567, 88.89, 4163
17:57:08.740607, 88.8925, 4161
17:57:08.740655, 88.895, 4156
17:57:08.741262, 88.8975, 4169
17:57:08.741313, 88.9, 4156
17:57:08.741343, 88.9025, 4154
17:57:08.741373, 88.905, 4178
17:57:08.742791, 88.9075, 4138
17:57:08.742837, 88.91, 4125
17:57:08.742892, 88.9125, 4152
17:57:08.742930, 88.915, 4171
17:57:08.751538, 88.9175, 4199
17:57:08.751582, 88.92, 4280
17:57:08.751613, 88.9225, 4338
17:57:08.751641, 88.925, 4372
17:57:08.751671, 88.9275, 4386
17:57:08.775902, 88.93, 4446
17:57:08.775996, 88.9325, 4435
17:57:08.776063, 88.935, 4324
17:57:08.776103, 88.9375, 4136
17:57:08.776655, 88.94, 3969
17:57:08.776694, 88.9425, 3665
17:57:08.776727, 88.945, 3373
17:57:08.776759, 88.9475, 3043
17:57:08.777820, 88.95, 2621
17:57:08.777859, 88.9525, 2202
17:57:08.777891, 88.955, 1971
17:57:08.777922, 88.9575, 1984
17:57:08.786675, 88.96, 2120
17:57:08.786723, 88.9625, 2634
17:57:08.786756, 88.965, 3426
17:57:08.786785, 88.9675, 4150
17:57:08.807917, 88.97, 4606
17:57:08.808053, 88.9725, 4789
17:57:08.808115, 88.975, 4807
17:57:08.808158, 88.9775, 4703
17:57:08.812797, 88.98, 4569
17:57:08.812855, 88.9825, 4523
17:57:08.812885, 88.985, 4495
17:57:08.812914, 88.9875, 4474
17:57:08.823348, 88.99, 4425
17:57:08.823438, 88.9925, 4460
17:57:08.823467, 88.995, 4461
17:57:08.823492, 88.9975, 4470
17:57:08.840987, 89.0, 4482
17:57:08.841123, 89.0025, 4488
17:57:08.841167, 89.005, 4500
17:57:08.841218, 89.0075, 4468
17:57:08.841775, 89.01, 4493
17:57:08.841843, 89.0125, 4477
17:57:08.841875, 89.015, 4472
17:57:08.841907, 89.0175, 4422
17:57:08.841939, 89.02, 4445
17:57:08.874567, 89.0225, 4421
17:57:08.874711, 89.025, 4388
17:57:08.874754, 89.0275, 4409
17:57:08.874789, 89.03, 4413
17:57:08.875299, 89.0325, 4414
17:57:08.875343, 89.035, 4416
17:57:08.875369, 89.0375, 4405
17:57:08.875395, 89.04, 4398
17:57:08.875818, 89.0425, 4344
17:57:08.875850, 89.045, 4370
17:57:08.875875, 89.0475, 4372
17:57:08.875899, 89.05, 4374
17:57:08.882741, 89.0525, 4371
17:57:08.882783, 89.055, 4372
17:57:08.882808, 89.0575, 4345
17:57:08.882832, 89.06, 4311
17:57:08.908586, 89.0625, 4318
17:57:08.908716, 89.065, 4290
17:57:08.908753, 89.0675, 4288
17:57:08.908785, 89.07, 4283
17:57:08.909284, 89.0725, 4283
17:57:08.909326, 89.075, 4293
17:57:08.909351, 89.0775, 4267
17:57:08.909376, 89.08, 4301
17:57:08.917813, 89.0825, 4288
17:57:08.917874, 89.085, 4265
17:57:08.917907, 89.0875, 4293
17:57:08.917939, 89.09, 4290
17:57:08.942054, 89.0925, 4296
17:57:08.942150, 89.095, 4294
17:57:08.942254, 89.0975, 4288
17:57:08.942288, 89.1, 4272
17:57:08.942318, 89.1025, 4251
17:57:08.942798, 89.105, 4238
17:57:08.942881, 89.1075, 4231
17:57:08.942912, 89.11, 4226
17:57:08.942941, 89.1125, 4204
17:57:08.943987, 89.115, 4215
17:57:08.944033, 89.1175, 4230
17:57:08.944057, 89.12, 4211
17:57:08.944079, 89.1225, 4210
17:57:08.977251, 89.125, 4213
17:57:08.977307, 89.1275, 4198
17:57:08.977339, 89.13, 4187
17:57:08.977360, 89.1325, 4218
17:57:08.977699, 89.135, 4224
17:57:08.977721, 89.1375, 4222
17:57:08.977736, 89.14, 4260
17:57:08.977751, 89.1425, 4237
17:57:08.978725, 89.145, 4237
17:57:08.978746, 89.1475, 4178
17:57:08.978762, 89.15, 4197
17:57:08.978776, 89.1525, 4202
17:57:08.978790, 89.155, 4223
17:57:08.987785, 89.1575, 4192
17:57:08.987833, 89.16, 4175
17:57:08.987864, 89.1625, 4189
17:57:08.987893, 89.165, 4162
17:57:09.008538, 89.1675, 4196
17:57:09.008699, 89.17, 4160
17:57:09.008772, 89.1725, 4152
17:57:09.008829, 89.175, 4141
17:57:09.009417, 89.1775, 4158
17:57:09.009469, 89.18, 4163
17:57:09.009501, 89.1825, 4164
17:57:09.009531, 89.185, 4174
17:57:09.014082, 89.1875, 4164
17:57:09.014133, 89.19, 4172
17:57:09.014166, 89.1925, 4175
17:57:09.014195, 89.195, 4158
17:57:09.041892, 89.1975, 4166
17:57:09.042004, 89.2, 4133
17:57:09.042045, 89.2025, 4169
17:57:09.042108, 89.205, 4161
17:57:09.042147, 89.2075, 4153
17:57:09.051144, 89.21, 4159
17:57:09.051196, 89.2125, 4166
17:57:09.051225, 89.215, 4133
17:57:09.051251, 89.2175, 4096
17:57:09.052357, 89.22, 4133
17:57:09.052387, 89.2225, 4121
17:57:09.052413, 89.225, 4116
17:57:09.052438, 89.2275, 4150
17:57:09.075360, 89.23, 4147
17:57:09.075486, 89.2325, 4108
17:57:09.075522, 89.235, 4021
17:57:09.075553, 89.2375, 4145
17:57:09.076118, 89.24, 4139
17:57:09.076163, 89.2425, 4116
17:57:09.076189, 89.245, 4135
17:57:09.076214, 89.2475, 4121
17:57:09.083930, 89.25, 4130
17:57:09.083984, 89.2525, 4118
17:57:09.084016, 89.255, 4161
17:57:09.084044, 89.2575, 4130
17:57:09.111800, 89.26, 4121
17:57:09.111873, 89.2625, 4140
17:57:09.111898, 89.265, 4140
17:57:09.111922, 89.2675, 4135
17:57:09.112315, 89.27, 4103
17:57:09.112342, 89.2725, 4179
17:57:09.112358, 89.275, 4163
17:57:09.112373, 89.2775, 4141
17:57:09.112640, 89.28, 4163
17:57:09.112660, 89.2825, 4163
17:57:09.112675, 89.285, 4171
17:57:09.112689, 89.2875, 4157
17:57:09.112704, 89.29, 4214
17:57:09.119451, 89.2925, 4227
17:57:09.119542, 89.295, 4223
17:57:09.119599, 89.2975, 4224
17:57:09.119652, 89.3, 4233
17:57:09.147917, 89.3025, 4210
17:57:09.147979, 89.305, 4178
17:57:09.148003, 89.3075, 4208
17:57:09.148031, 89.31, 4225
17:57:09.148382, 89.3125, 4232
17:57:09.148410, 89.315, 4222
17:57:09.148426, 89.3175, 4205
17:57:09.148441, 89.32, 4197
17:57:09.154016, 89.3225, 4172
17:57:09.154102, 89.325, 4198
17:57:09.154157, 89.3275, 4190
17:57:09.154208, 89.33, 4218
17:57:09.179046, 89.3325, 4201
17:57:09.179111, 89.335, 4215
17:57:09.179133, 89.3375, 4226
17:57:09.179153, 89.34, 4208
17:57:09.179506, 89.3425, 4234
17:57:09.179532, 89.345, 4225
17:57:09.179547, 89.3475, 4225
17:57:09.179561, 89.35, 4224
17:57:09.179941, 89.3525, 4198
17:57:09.179960, 89.355, 4197
17:57:09.179974, 89.3575, 4202
17:57:09.179988, 89.36, 4221
17:57:09.209698, 89.3625, 4218
17:57:09.209788, 89.365, 4239
17:57:09.209810, 89.3675, 4206
17:57:09.209830, 89.37, 4199
17:57:09.209899, 89.3725, 4201
17:57:09.210235, 89.375, 4160
17:57:09.210267, 89.3775, 4200
17:57:09.210283, 89.38, 4199
17:57:09.210298, 89.3825, 4177
17:57:09.215137, 89.385, 4194
17:57:09.215184, 89.3875, 4198
17:57:09.215207, 89.39, 4205
17:57:09.215229, 89.3925, 4174
17:57:09.223934, 89.395, 4183
17:57:09.223971, 89.3975, 4173
17:57:09.224067, 89.4, 4162
17:57:09.224094, 89.4025, 4181
17:57:09.244439, 89.405, 4172
17:57:09.244513, 89.4075, 4177
17:57:09.244535, 89.41, 4152
17:57:09.244555, 89.4125, 4182
17:57:09.244925, 89.415, 4178
17:57:09.244954, 89.4175, 4181
17:57:09.244969, 89.42, 4173
17:57:09.244984, 89.4225, 4182
17:57:09.259771, 89.425, 4182
17:57:09.259904, 89.4275, 4139
17:57:09.259945, 89.43, 4182
17:57:09.259981, 89.4325, 4179
17:57:09.281442, 89.435, 4164
17:57:09.281595, 89.4375, 4185
17:57:09.281627, 89.44, 4154
17:57:09.281649, 89.4425, 4158
17:57:09.286740, 89.445, 4135
17:57:09.286862, 89.4475, 4154
17:57:09.286927, 89.45, 4166
17:57:09.286980, 89.4525, 4141
17:57:09.314666, 89.455, 4156
17:57:09.314730, 89.4575, 4156
17:57:09.314753, 89.46, 4149
17:57:09.314773, 89.4625, 4144
17:57:09.315177, 89.465, 4183
17:57:09.315201, 89.4675, 4159
17:57:09.315217, 89.47, 4136
17:57:09.315232, 89.4725, 4150
17:57:09.315498, 89.475, 4164
17:57:09.315518, 89.4775, 4143
17:57:09.315534, 89.48, 4034
17:57:09.315548, 89.4825, 4167
17:57:09.320347, 89.485, 4172
17:57:09.320374, 89.4875, 4170
17:57:09.320391, 89.49, 4172
17:57:09.320406, 89.4925, 4178
17:57:09.320421, 89.495, 4167
17:57:09.346980, 89.4975, 4147
17:57:09.347065, 89.5, 4170
17:57:09.347095, 89.5025, 4174
17:57:09.347120, 89.505, 4172
17:57:09.347573, 89.5075, 4172
17:57:09.347602, 89.51, 4169
17:57:09.347621, 89.5125, 4169
17:57:09.347640, 89.515, 4137
17:57:09.357203, 89.5175, 4169
17:57:09.357232, 89.52, 4178
17:57:09.357248, 89.5225, 4166
17:57:09.357262, 89.525, 4177
17:57:09.359683, 89.5275, 4181
17:57:09.359725, 89.53, 4174
17:57:09.359794, 89.5325, 4134
17:57:09.359838, 89.535, 4206
17:57:09.379259, 89.5375, 4203
17:57:09.379353, 89.54, 4185
17:57:09.379416, 89.5425, 4181
17:57:09.379500, 89.545, 4202
17:57:09.381428, 89.5475, 4172
17:57:09.381458, 89.55, 4141
17:57:09.381479, 89.5525, 4186
17:57:09.381498, 89.555, 4164
17:57:09.390297, 89.5575, 4180
17:57:09.390360, 89.56, 4206
17:57:09.390399, 89.5625, 4222
17:57:09.390433, 89.565, 4198
17:57:09.413053, 89.5675, 4171
17:57:09.413115, 89.57, 4183
17:57:09.413139, 89.5725, 4180
17:57:09.413159, 89.575, 4159
17:57:09.413206, 89.5775, 4142
17:57:09.413518, 89.58, 4133
17:57:09.413540, 89.5825, 4123
17:57:09.413556, 89.585, 4133
17:57:09.413571, 89.5875, 4158
17:57:09.417101, 89.59, 4160
17:57:09.417189, 89.5925, 4175
17:57:09.417243, 89.595, 4183
17:57:09.417293, 89.5975, 4189
17:57:09.448805, 89.6, 4221
17:57:09.448865, 89.6025, 4181
17:57:09.448888, 89.605, 4165
17:57:09.448908, 89.6075, 4161
17:57:09.449274, 89.61, 4141
17:57:09.449300, 89.6125, 4144
17:57:09.449315, 89.615, 4161
17:57:09.449330, 89.6175, 4152
17:57:09.451218, 89.62, 4135
17:57:09.451241, 89.6225, 4166
17:57:09.451257, 89.625, 4179
17:57:09.451272, 89.6275, 4160
17:57:09.479382, 89.63, 4190
17:57:09.479485, 89.6325, 4200
17:57:09.479519, 89.635, 4182
17:57:09.479545, 89.6375, 4118
17:57:09.480121, 89.64, 4173
17:57:09.480174, 89.6425, 4178
17:57:09.480199, 89.645, 4184
17:57:09.480220, 89.6475, 4187
17:57:09.480582, 89.65, 4199
17:57:09.480611, 89.6525, 4194
17:57:09.480630, 89.655, 4183
17:57:09.480650, 89.6575, 4231
17:57:09.511555, 89.66, 4215
17:57:09.511668, 89.6625, 4220
17:57:09.511728, 89.665, 4209
17:57:09.511751, 89.6675, 4230
17:57:09.511773, 89.67, 4229
17:57:09.512129, 89.6725, 4229
17:57:09.512161, 89.675, 4234
17:57:09.512177, 89.6775, 4201
17:57:09.512192, 89.68, 4193
17:57:09.512584, 89.6825, 4202
17:57:09.512613, 89.685, 4202
17:57:09.512629, 89.6875, 4159
17:57:09.512643, 89.69, 4134
17:57:09.521972, 89.6925, 4176
17:57:09.522039, 89.695, 4216
17:57:09.522080, 89.6975, 4204
17:57:09.522119, 89.7, 4211
17:57:09.545990, 89.7025, 4207
17:57:09.546086, 89.705, 4175
17:57:09.546111, 89.7075, 4167
17:57:09.546180, 89.71, 4207
17:57:09.546498, 89.7125, 4185
17:57:09.546528, 89.715, 4183
17:57:09.546544, 89.7175, 4206
17:57:09.546559, 89.72, 4197
17:57:09.557502, 89.7225, 4173
17:57:09.557639, 89.725, 4050
17:57:09.557740, 89.7275, 4192
17:57:09.557834, 89.73, 4189
17:57:09.580837, 89.7325, 4185
17:57:09.580927, 89.735, 4177
17:57:09.580952, 89.7375, 4185
17:57:09.580971, 89.74, 4180
17:57:09.581267, 89.7425, 4119
17:57:09.581287, 89.745, 4146
17:57:09.581302, 89.7475, 4153
17:57:09.581317, 89.75, 4141
17:57:09.582572, 89.7525, 4174
17:57:09.582591, 89.755, 4162
17:57:09.582606, 89.7575, 4147
17:57:09.582620, 89.76, 4129
17:57:09.582634, 89.7625, 4150
17:57:09.592133, 89.765, 4170
17:57:09.592235, 89.7675, 4168
17:57:09.592284, 89.77, 4158
17:57:09.592331, 89.7725, 4181
17:57:09.616340, 89.775, 4172
17:57:09.616402, 89.7775, 4147
17:57:09.616426, 89.78, 4165
17:57:09.616446, 89.7825, 4169
17:57:09.617604, 89.785, 4171
17:57:09.617632, 89.7875, 4183
17:57:09.617648, 89.79, 4155
17:57:09.617663, 89.7925, 4134
17:57:09.627238, 89.795, 4100
17:57:09.627296, 89.7975, 4140
17:57:09.627324, 89.8, 4140
17:57:09.627352, 89.8025, 4154
17:57:09.648488, 89.805, 4150
17:57:09.648559, 89.8075, 4144
17:57:09.648584, 89.81, 4146
17:57:09.648604, 89.8125, 4127
17:57:09.649120, 89.815, 4146
17:57:09.649160, 89.8175, 4144
17:57:09.649190, 89.82, 4153
17:57:09.649219, 89.8225, 4160
17:57:09.653301, 89.825, 4154
17:57:09.653396, 89.8275, 4155
17:57:09.653455, 89.83, 4037
17:57:09.653506, 89.8325, 4184
17:57:09.678907, 89.835, 4157
17:57:09.679005, 89.8375, 4149
17:57:09.679035, 89.84, 4164
17:57:09.679063, 89.8425, 4190
17:57:09.679624, 89.845, 4198
17:57:09.679672, 89.8475, 4172
17:57:09.679695, 89.85, 4176
17:57:09.679716, 89.8525, 4197
17:57:09.679737, 89.855, 4189
17:57:09.687787, 89.8575, 4163
17:57:09.687845, 89.86, 4158
17:57:09.687868, 89.8625, 4126
17:57:09.687888, 89.865, 4098
17:57:09.713556, 89.8675, 4135
17:57:09.713654, 89.87, 4131
17:57:09.713733, 89.8725, 4110
17:57:09.713759, 89.875, 4115
17:57:09.714089, 89.8775, 4121
17:57:09.714122, 89.88, 4145
17:57:09.714138, 89.8825, 4119
17:57:09.714154, 89.885, 4144
17:57:09.723371, 89.8875, 4119
17:57:09.723462, 89.89, 4127
17:57:09.723517, 89.8925, 4170
17:57:09.723567, 89.895, 4179
17:57:09.746944, 89.8975, 4206
17:57:09.747041, 89.9, 4176
17:57:09.747064, 89.9025, 4207
17:57:09.747084, 89.905, 4196
17:57:09.747447, 89.9075, 4188
17:57:09.747478, 89.91, 4218
17:57:09.747493, 89.9125, 4228
17:57:09.747508, 89.915, 4201
17:57:09.748710, 89.9175, 4157
17:57:09.748732, 89.92, 4189
17:57:09.748747, 89.9225, 4200
17:57:09.748761, 89.925, 4191
17:57:09.748775, 89.9275, 4191
17:57:09.758228, 89.93, 4196
17:57:09.758315, 89.9325, 4186
17:57:09.758369, 89.935, 4140
17:57:09.758421, 89.9375, 4167
17:57:09.784047, 89.94, 4146
17:57:09.784113, 89.9425, 4172
17:57:09.784137, 89.945, 4173
17:57:09.784157, 89.9475, 4197
17:57:09.784479, 89.95, 4197
17:57:09.784505, 89.9525, 4135
17:57:09.784520, 89.955, 4168
17:57:09.784535, 89.9575, 4181
17:57:09.793046, 89.96, 4193
17:57:09.793121, 89.9625, 4186
17:57:09.793167, 89.965, 4239
17:57:09.793209, 89.9675, 4279
17:57:09.815957, 89.97, 4271
17:57:09.816049, 89.9725, 4360
17:57:09.816073, 89.975, 4387
17:57:09.816093, 89.9775, 4410
17:57:09.816413, 89.98, 4322
17:57:09.816439, 89.9825, 4189
17:57:09.816454, 89.985, 3986
17:57:09.816468, 89.9875, 3752
17:57:09.818947, 89.99, 3496
17:57:09.819035, 89.9925, 3262
17:57:09.819090, 89.995, 2928
17:57:09.819140, 89.9975, 2494
17:57:09.828137, 90.0, 2215
17:57:09.828197, 90.0025, 2020
17:57:09.828225, 90.005, 2065
17:57:09.828245, 90.0075, 2360
17:57:09.848543, 90.01, 2910
17:57:09.848651, 90.0125, 3740
17:57:09.848712, 90.015, 4517
17:57:09.848772, 90.0175, 4831
17:57:09.854212, 90.02, 4939
17:57:09.854279, 90.0225, 4920
17:57:09.854332, 90.025, 4799
17:57:09.854381, 90.0275, 4671
17:57:09.854430, 90.03, 4561
17:57:09.879751, 90.0325, 4539
17:57:09.879888, 90.035, 4494
17:57:09.879933, 90.0375, 4481
17:57:09.880503, 90.04, 4439
17:57:09.880557, 90.0425, 4484
17:57:09.880589, 90.045, 4481
17:57:09.880619, 90.0475, 4503
