17:58:00.005204 415.58 1256 3024 13964 182 207 -30
17:58:00.028561 415.59 1256 3076 14156 413 192 -29
17:58:00.028804 415.6 1300 3100 14080 332 188 20
17:58:00.048313 415.61 1100 3156 13576 -631 230 131
17:58:00.061489 415.62 1296 2980 13816 -467 -20 97
17:58:00.068186 415.63 1448 3136 14652 1200 367 -124
17:58:00.069285 415.64 1308 3408 14528 1353 421 -127
17:58:00.070448 415.65 1192 3376 14036 158 140 5
17:58:00.084194 415.66 1188 3156 14092 146 376 -8
17:58:00.093900 415.67 1140 3368 13572 -350 110 84
17:58:00.099606 415.68 1140 3128 13480 -646 -112 135
17:58:00.120154 415.69 1304 2928 13788 164 12 60
17:58:00.130060 415.7 1472 3092 14016 534 -60 5
17:58:00.130242 415.71 1316 3252 14236 624 -102 -17
17:58:00.153315 415.72 1212 3268 14148 502 17 19
17:58:00.161865 415.73 1192 3376 14084 301 121 6
17:58:00.162004 415.74 1288 3344 14112 232 168 1
17:58:00.187952 415.75 1400 3524 14288 227 223 -23
17:58:00.199332 415.76 1376 3268 14040 166 330 -67
17:58:00.199429 415.77 1376 3372 13880 278 276 -77
17:58:00.199495 415.78 1460 3240 13800 233 285 -40
17:58:00.204772 415.79 1356 3132 13684 449 280 -55
17:58:00.221027 415.8 1296 3292 13828 866 156 -42
17:58:00.249303 415.81 1320 3188 13932 891 125 -63
17:58:00.260203 415.82 1316 3324 13908 845 182 -49
17:58:00.260390 415.83 1324 3300 13992 800 169 -24
17:58:00.260635 415.84 1236 3388 13968 711 179 -39
17:58:00.289163 415.85 1236 3368 14108 643 268 -16
17:58:00.297093 415.86 1364 3412 14048 648 350 -48
17:58:00.297302 415.87 1292 3428 13980 671 301 -46
17:58:00.298646 415.88 1304 3436 13888 670 258 -50
17:58:00.302130 415.89 1176 3460 13952 653 253 -73
17:58:00.317036 415.9 1360 3492 13972 734 277 -72
17:58:00.348843 415.91 1176 3580 13992 679 249 -33
17:58:00.362159 415.92 1308 3564 13972 659 262 -72
17:58:00.362336 415.93 1436 3564 14004 808 243 -43
17:58:00.362560 415.94 1248 3624 14016 907 273 -81
17:58:00.384397 415.95 1324 3708 13992 1010 349 -102
17:58:00.393624 415.96 1260 3844 14024 977 314 -95
17:58:00.401694 415.97 1276 3712 14100 927 249 -103
17:58:00.403609 415.98 1220 3700 14240 962 601 -108
17:58:00.419464 415.99 1104 3704 13592 293 231 -29
17:58:00.428914 416.0 1296 3548 13788 310 274 -56
17:58:00.440471 416.01 1324 3756 13916 997 329 -117
17:58:00.463410 416.02 1232 3764 14060 996 237 -113
17:58:00.463567 416.03 1284 3796 14080 693 297 -85
17:58:00.488789 416.04 1296 3808 13916 421 237 -66
17:58:00.496302 416.05 1156 3748 13900 371 209 -46
17:58:00.499067 416.06 1280 3796 13936 421 145 -34
17:58:00.500669 416.07 1360 3892 14008 421 157 -40
17:58:00.525219 416.08 1312 3800 14004 442 182 -65
17:58:00.529230 416.09 1304 3872 13968 469 230 -48
17:58:00.529394 416.1 1336 3932 14084 472 259 -55
17:58:00.534467 416.11 1148 3952 14064 375 296 -65
17:58:00.551837 416.12 1220 3812 13840 358 312 -68
17:58:00.562336 416.13 1296 3920 13764 326 318 -56
17:58:00.574374 416.14 1152 3888 13932 389 300 -70
17:58:00.576764 416.15 1192 3848 13940 446 300 -43
17:58:00.596775 416.16 1296 3964 13916 278 271 -42
17:58:00.598363 416.17 1172 3864 13812 168 253 -41
17:58:00.620667 416.18 1260 3908 13912 193 228 -21
17:58:00.628511 416.19 1200 3960 13996 203 266 -51
17:58:00.631817 416.2 1248 4036 13888 191 263 -44
17:58:00.640119 416.21 1252 3952 13976 130 249 -55
17:58:00.657094 416.22 1236 3996 13944 71 279 -4
17:58:00.664234 416.23 1112 3904 13868 78 263 -46
17:58:00.669720 416.24 1220 3952 13772 86 268 -35
17:58:00.685230 416.25 1220 3972 13972 101 251 -61
17:58:00.722864 416.26 1320 4008 13796 105 270 -35
17:58:00.731779 416.27 1204 4080 13960 100 265 -42
17:58:00.731962 416.28 1196 3920 14036 62 285 -42
17:58:00.732262 416.29 1196 4056 14004 79 264 -49
17:58:00.739345 416.3 1248 4032 13832 64 249 -40
17:58:00.741236 416.31 1192 4000 13916 35 264 -19
17:58:00.788419 416.32 1236 4036 13876 -19 249 -26
17:58:00.796754 416.33 1204 4032 13772 -48 249 -30
17:58:00.796954 416.34 1204 3972 13912 -21 250 -42
17:58:00.797172 416.35 1116 4000 13912 -2 233 -46
17:58:00.797531 416.36 1124 3972 13920 -5 256 -48
17:58:00.818007 416.37 1300 4084 13976 19 295 -41
17:58:00.831667 416.38 1244 4020 13832 -5 259 -51
17:58:00.836586 416.39 1184 4028 13820 4 324 -51
17:58:00.838332 416.4 1296 3948 13888 49 295 -36
17:58:00.851791 416.41 1204 4028 13764 4 319 -56
17:58:00.871361 416.42 1164 3976 13964 -30 278 -44
17:58:00.874351 416.43 1116 4100 13788 -110 282 -46
17:58:00.876002 416.44 1100 4012 13972 -102 266 -29
17:58:00.900376 416.45 1124 4120 14060 -130 231 -33
17:58:00.923061 416.46 1196 4160 13944 -146 226 -22
17:58:00.930523 416.47 1252 4040 13804 -163 225 -13
17:58:00.930621 416.48 1192 4096 13940 -193 243 -28
17:58:00.934184 416.49 1200 4048 13776 -211 224 -9
17:58:00.935802 416.5 1148 4008 13860 -208 241 -7
17:58:00.957094 416.51 1240 4060 14024 -242 226 -5
17:58:00.967641 416.52 1196 4092 13776 -214 249 8
17:58:00.969752 416.53 1164 4048 13880 -256 269 -25
17:58:00.998005 416.54 1244 4072 13904 -298 261 -7
17:58:01.002376 416.55 1172 4004 13808 -309 220 -8
17:58:01.002539 416.56 1196 3968 13844 -309 212 5
17:58:01.036084 416.57 1088 3988 13916 -306 229 -12
17:58:01.037133 416.58 1208 4064 13900 -313 241 16
17:58:01.038135 416.59 1096 4044 13948 -342 248 -19
17:58:01.060014 416.6 1160 3916 13980 -375 228 -19
17:58:01.072365 416.61 1128 4044 13992 -428 259 0
17:58:01.072610 416.62 1280 4076 13940 -508 257 1
17:58:01.095553 416.63 1224 4072 13972 -644 217 -3
17:58:01.103759 416.64 1108 3952 13896 -792 186 10
17:58:01.103892 416.65 1152 3948 13864 -835 172 33
17:58:01.124707 416.66 1152 3952 13972 -642 223 18
17:58:01.133200 416.67 1136 4084 14144 -520 333 -38
17:58:01.133334 416.68 1148 3976 14096 -635 369 -25
17:58:01.155089 416.69 1172 4024 14040 -872 273 -3
17:58:01.169245 416.7 1084 3952 13868 -1084 219 21
17:58:01.169390 416.71 1268 3900 13908 -1086 65 38
17:58:01.174663 416.72 1144 3860 14084 -1161 10 109
17:58:01.175949 416.73 1232 3912 13944 -1537 197 151
17:58:01.189248 416.74 1152 3824 13636 -2249 3 207
17:58:01.208509 416.75 1476 3724 14256 -1605 121 117
17:58:01.211864 416.76 1260 3932 14376 -676 247 25
17:58:01.213300 416.77 1132 3836 13828 -1497 -124 114
17:58:01.234887 416.78 1260 3632 13960 -1719 89 115
17:58:01.254801 416.79 1108 3556 13756 -1714 89 181
17:58:01.254960 416.8 1088 3400 13488 -2400 -345 279
17:58:01.276144 416.81 1216 3276 13676 -1943 -225 270
17:58:01.283482 416.82 1316 3496 14160 -950 -228 155
17:58:01.283611 416.83 1420 3756 14228 -949 -229 125
17:58:01.284512 416.84 1296 3708 14116 -1333 -185 162
17:58:01.292213 416.85 1192 3620 14208 -1646 -75 195
17:58:01.307175 416.86 1148 3596 14068 -1851 -34 247
17:58:01.342023 416.87 1264 3484 14072 -1850 -2 205
17:58:01.349886 416.88 1308 3408 13996 -1707 62 155
17:58:01.350028 416.89 1256 3384 14140 -1777 91 167
17:58:01.350127 416.9 1276 3208 13900 -1815 165 127
17:58:01.351944 416.91 1240 3040 13864 -1707 89 144
17:58:01.376219 416.92 1376 3064 13892 -1504 -35 126
17:58:01.392826 416.93 1380 3128 13996 -1201 41 145
17:58:01.395317 416.94 1348 3064 14148 -1069 -3 113
17:58:01.416302 416.95 1280 3104 14112 -1128 109 63
17:58:01.416473 416.96 1328 3192 14112 -1204 211 87
17:58:01.429572 416.97 1296 3060 13952 -1285 174 97
17:58:01.454631 416.98 1324 2944 14060 -1351 221 94
17:58:01.454765 416.99 1320 3072 14000 -1282 178 62
17:58:01.454873 417.0 1332 2980 14212 -1390 40 107
17:58:01.454963 417.01 1360 3016 14120 -1479 28 112
17:58:01.473957 417.02 1320 2924 14140 -1467 13 112
17:58:01.489288 417.03 1336 2932 14112 -1504 0 112
17:58:01.490886 417.04 1388 2812 14212 -1371 29 116
17:58:01.511055 417.05 1472 2844 14276 -1219 125 59
17:58:01.518713 417.06 1344 2940 14236 -1157 175 44
17:58:01.526887 417.07 1352 2880 14276 -1090 180 31
17:58:01.529242 417.08 1368 2892 14112 -1159 148 37
17:58:01.555553 417.09 1400 2764 14516 -977 253 -22
17:58:01.555716 417.1 1288 2776 14072 -1028 303 71
17:58:01.573260 417.11 1416 2812 13940 -1493 103 45
17:58:01.588126 417.12 1280 2616 13924 -1507 -5 73
17:58:01.615609 417.13 1284 2604 14168 -737 -31 8
17:58:01.620808 417.14 1404 2708 14296 -693 26 -16
17:58:01.621101 417.15 1312 2584 14144 -989 18 26
17:58:01.621364 417.16 1372 2648 14204 -1119 7 84
17:58:01.622921 417.17 1420 2688 14228 -1212 -16 72
17:58:01.629676 417.18 1528 2672 14140 -1213 -39 56
17:58:01.651315 417.19 1428 2572 14224 -1254 -49 29
17:58:01.678928 417.2 1464 2636 14140 -1203 58 -11
17:58:01.686889 417.21 1408 2492 14224 -1184 77 -20
17:58:01.692078 417.22 1276 2492 14144 -1153 80 -12
17:58:01.694915 417.23 1320 2448 14272 -1153 140 -8
17:58:01.706758 417.24 1396 2344 14308 -1251 138 -17
17:58:01.723425 417.25 1476 2344 14188 -1308 129 -2
17:58:01.740299 417.26 1456 2348 14240 -1254 140 -16
17:58:01.754457 417.27 1440 2412 14212 -1248 69 -26
17:58:01.754707 417.28 1292 2404 14176 -1292 -13 -11
17:58:01.754883 417.29 1268 2296 14008 -1284 59 -16
17:58:01.775815 417.3 1356 2312 14252 -1140 -3 -2
17:58:01.788523 417.31 1284 2256 14128 -1098 27 -9
17:58:01.788701 417.32 1448 2284 14224 -1071 18 15
17:58:01.789084 417.33 1312 2332 14156 -1129 19 50
17:58:01.790683 417.34 1412 2268 14240 -1127 34 16
17:58:01.812353 417.35 1420 2264 14208 -1125 87 -2
17:58:01.820723 417.36 1424 2284 14304 -1099 94 5
17:58:01.824478 417.37 1468 2172 14188 -1029 39 -47
17:58:01.845131 417.38 1344 2164 14200 -1152 129 -24
17:58:01.853818 417.39 1328 2172 14220 -1093 103 4
17:58:01.865260 417.4 1404 2092 14320 -975 75 -4
17:58:01.888065 417.41 1420 2152 14260 -1025 143 26
17:58:01.888321 417.42 1500 2024 14208 -1034 83 12
17:58:01.913371 417.43 1496 2000 14192 -994 75 -23
17:58:01.922476 417.44 1464 1984 14412 -918 101 -65
17:58:01.922654 417.45 1368 1936 14112 -984 102 -33
17:58:01.922792 417.46 1468 1980 14168 -1058 84 -49
17:58:01.950501 417.47 1464 1908 14104 -938 92 -21
17:58:01.954576 417.48 1464 1968 14264 -881 89 -10
17:58:01.954702 417.49 1492 1928 14172 -919 135 -45
17:58:01.959517 417.5 1496 1812 14132 -776 55 -3
17:58:01.983308 417.51 1524 1888 14244 -817 128 -26
17:58:02.012845 417.52 1308 1856 14248 -841 101 -60
17:58:02.024665 417.53 1448 1840 14384 -881 117 -35
17:58:02.024863 417.54 1472 1796 14280 -893 79 -53
17:58:02.024996 417.55 1508 1740 14212 -855 50 -55
17:58:02.029288 417.56 1520 1792 14408 -875 86 -46
17:58:02.030446 417.57 1492 1776 14136 -780 99 -40
17:58:02.044816 417.58 1432 1708 14232 -735 80 -21
17:58:02.076647 417.59 1464 1844 14272 -764 83 -1
17:58:02.087596 417.6 1560 1696 14208 -690 97 -27
17:58:02.087815 417.61 1488 1748 14236 -663 72 -32
17:58:02.088125 417.62 1524 1728 14272 -722 151 -14
17:58:02.088442 417.63 1520 1672 14312 -704 91 -39
17:58:02.111200 417.64 1512 1808 14120 -640 101 -1
17:58:02.126778 417.65 1464 1752 14332 -627 173 -15
17:58:02.129021 417.66 1552 1668 14164 -523 101 -8
17:58:02.144878 417.67 1400 1696 14388 -506 140 3
17:58:02.155004 417.68 1584 1664 14324 -564 149 -2
17:58:02.155155 417.69 1496 1712 14204 -589 21 -9
17:58:02.162269 417.7 1548 1536 14152 -535 27 53
17:58:02.179958 417.71 1516 1608 14392 -170 178 18
17:58:02.192098 417.72 1536 1620 14392 34 194 -21
17:58:02.207405 417.73 1508 1736 14264 80 226 -16
17:58:02.228195 417.74 1536 1688 14192 41 168 -15
17:58:02.228332 417.75 1392 1644 14016 -3 107 19
17:58:02.228432 417.76 1544 1540 14176 191 100 58
17:58:02.247495 417.77 1584 1680 14536 436 254 10
17:58:02.263204 417.78 1516 1720 14404 311 474 26
17:58:02.263680 417.79 1364 1732 13600 -617 220 88
17:58:02.287935 417.8 1564 1432 14532 -125 188 87
17:58:02.288918 417.81 1644 1640 14528 1163 283 -68
17:58:02.289998 417.82 1532 1896 13984 489 -38 -16
17:58:02.301056 417.83 1552 1604 14088 216 79 -4
17:58:02.322882 417.84 1544 1728 14452 942 404 -75
17:58:02.350166 417.85 1336 1876 13720 -1 2 70
17:58:02.372174 417.86 1628 1584 13824 -240 70 119
17:58:02.372269 417.87 1580 1628 14352 709 272 45
17:58:02.372339 417.88 1748 1864 14792 1051 416 -25
17:58:02.372407 417.89 1532 1968 14588 956 392 -44
17:58:02.372473 417.9 1492 1996 14512 536 339 -47
17:58:02.379360 417.91 1384 1996 14276 309 382 51
17:58:02.400148 417.92 1404 1904 14424 241 214 74
17:58:02.408965 417.93 1560 1876 14304 203 148 21
17:58:02.409112 417.94 1560 1860 14220 205 221 61
17:58:02.417216 417.95 1444 1780 14004 221 251 22
17:58:02.441876 417.96 1524 1780 14008 393 269 27
17:58:02.442195 417.97 1552 1824 13916 629 295 16
17:58:02.467976 417.98 1612 1872 14236 898 227 12
17:58:02.475214 417.99 1600 1872 14308 1134 235 -26
17:58:02.475505 418.0 1464 1896 14480 1235 288 -25
17:58:02.477003 418.01 1504 1940 14376 1141 320 -43
17:58:02.495303 418.02 1496 1976 14264 1074 329 -51
17:58:02.508516 418.03 1452 2104 14136 1048 347 -40
17:58:02.517281 418.04 1488 2016 14244 992 314 -25
17:58:02.520078 418.05 1572 2080 14204 994 263 -14
17:58:02.539234 418.06 1488 2080 14328 1067 297 -29
17:58:02.540759 418.07 1484 2180 14224 1070 364 -13
17:58:02.566405 418.08 1584 2096 14092 1122 287 -13
17:58:02.575297 418.09 1516 2204 14276 1197 303 -30
17:58:02.575467 418.1 1492 2220 14068 1360 395 -25
17:58:02.582166 418.11 1416 2304 14248 1512 460 -39
17:58:02.599642 418.12 1416 2536 14276 1645 494 -62
17:58:02.608674 418.13 1448 2392 14364 1474 367 -65
17:58:02.628464 418.14 1448 2460 14444 1472 759 -80
17:58:02.640777 418.15 1348 2536 13900 881 392 12
17:58:02.640900 418.16 1432 2444 14052 551 366 -3
17:58:02.663323 418.17 1412 2448 14264 976 389 -40
17:58:02.675137 418.18 1360 2548 14052 858 117 -33
17:58:02.675347 418.19 1504 2404 14192 918 259 -63
17:58:02.681948 418.2 1364 2424 14224 1156 341 -65
17:58:02.683697 418.21 1444 2528 14268 1110 298 -31
17:58:02.706103 418.22 1528 2592 14176 968 313 -36
17:58:02.719162 418.23 1464 2544 14132 799 264 -40
17:58:02.721222 418.24 1444 2656 14104 766 275 -67
17:58:02.739670 418.25 1400 2676 14104 950 310 -64
17:58:02.748690 418.26 1488 2636 14208 1133 342 -96
17:58:02.748913 418.27 1360 2720 14088 1172 421 -91
17:58:02.755712 418.28 1348 2736 14276 1029 413 -90
17:58:02.779319 418.29 1412 2836 14096 878 368 -73
17:58:02.782802 418.3 1404 2732 14032 866 382 -82
17:58:02.794691 418.31 1396 2736 14212 925 392 -91
17:58:02.801972 418.32 1464 2876 14192 827 357 -68
17:58:02.817247 418.33 1368 2788 14152 674 362 -71
17:58:02.824572 418.34 1332 2780 14172 798 376 -60
17:58:02.851463 418.35 1408 2796 14240 984 394 -89
17:58:02.858986 418.36 1332 2924 14076 1036 336 -93
17:58:02.859166 418.37 1312 2928 14172 967 380 -74
17:58:02.859317 418.38 1348 3016 14160 927 316 -51
17:58:02.859700 418.39 1340 3020 14204 918 304 -48
17:58:02.879904 418.4 1420 2996 14100 961 382 -53
17:58:02.899435 418.41 1420 3100 14204 874 399 -46
17:58:02.901001 418.42 1280 3136 14040 805 397 -58
17:58:02.914169 418.43 1324 3132 14096 849 343 -53
17:58:02.922752 418.44 1416 3220 14072 861 347 -71
17:58:02.936888 418.45 1340 3156 13888 848 383 -75
17:58:02.956691 418.46 1180 3132 14092 809 360 -122
17:58:02.959231 418.47 1304 3128 14068 746 343 -83
17:58:02.960814 418.48 1304 3180 14116 723 322 -89
17:58:02.985996 418.49 1232 3132 14032 736 312 -50
17:58:02.995226 418.5 1368 3208 14100 769 270 -71
17:58:02.996631 418.51 1304 3208 14116 754 310 -103
17:58:02.998245 418.52 1284 3224 14104 826 348 -104
17:58:03.014847 418.53 1380 3280 14168 854 310 -107
17:58:03.037161 418.54 1308 3308 14052 827 325 -126
17:58:03.037554 418.55 1376 3324 14076 868 362 -107
17:58:03.037984 418.56 1356 3316 14080 838 343 -101
17:58:03.056952 418.57 1356 3440 13912 703 343 -101
17:58:03.061155 418.58 1260 3316 14116 730 334 -90
17:58:03.071996 418.59 1368 3352 14020 662 305 -73
17:58:03.080203 418.6 1292 3376 13984 714 318 -61
17:58:03.096677 418.61 1220 3348 14004 669 301 -70
17:58:03.115926 418.62 1292 3420 13992 710 303 -78
17:58:03.116617 418.63 1216 3460 14076 735 318 -69
17:58:03.118668 418.64 1348 3368 14064 700 291 -57
17:58:03.133348 418.65 1324 3476 14028 659 283 -90
17:58:03.155095 418.66 1400 3600 14012 664 298 -49
17:58:03.178674 418.67 1280 3564 13900 664 325 -79
17:58:03.180245 418.68 1240 3492 13972 618 304 -81
17:58:03.181492 418.69 1312 3592 14048 676 293 -65
17:58:03.182587 418.7 1336 3560 14192 716 311 -98
17:58:03.189497 418.71 1380 3708 14168 655 319 -95
17:58:03.212751 418.72 1344 3616 14064 634 340 -96
17:58:03.212931 418.73 1360 3676 13952 541 341 -87
17:58:03.240522 418.74 1316 3528 13820 398 294 -73
17:58:03.246732 418.75 1196 3556 13712 312 190 -31
17:58:03.246945 418.76 1236 3620 13812 351 198 -43
17:58:03.249344 418.77 1332 3648 14052 603 287 -75
17:58:03.274645 418.78 1212 3712 14128 755 394 -137
17:58:03.283497 418.79 1196 3828 14156 734 395 -107
17:58:03.288573 418.8 1160 3828 13980 511 369 -95
17:58:03.335239 418.81 1216 3752 13888 303 264 -56
17:58:03.349144 418.82 1256 3740 13932 386 231 -76
17:58:03.369123 418.83 1292 3708 14060 338 218 -58
17:58:03.380270 418.84 1104 3872 13744 -259 403 37
17:58:03.380420 418.85 1296 3644 13712 -623 31 75
17:58:03.380535 418.86 1424 3708 14340 433 421 -100
17:58:03.380645 418.87 1184 3996 14356 962 390 -127
17:58:03.380755 418.88 1252 3828 13968 -61 97 -21
17:58:03.380863 418.89 1252 3768 13860 91 396 -72
17:58:03.404414 418.9 1072 3836 13572 -371 124 61
17:58:03.412664 418.91 1120 3600 13448 -630 -78 146
17:58:03.412832 418.92 1316 3564 13824 153 -7 57
17:58:03.435970 418.93 1456 3620 14004 440 -98 37
17:58:03.447514 418.94 1260 3772 14308 489 -144 17
17:58:03.447679 418.95 1276 3936 14096 439 -47 14
17:58:03.454454 418.96 1144 3892 13900 208 81 3
17:58:03.456643 418.97 1160 3972 13872 173 146 0
17:58:03.479596 418.98 1296 3916 13884 171 189 -47
17:58:03.500166 418.99 1396 3920 14080 206 278 -47
17:58:03.511677 419.0 1228 3932 13908 212 283 -60
17:58:03.511847 419.01 1352 3836 13812 225 293 -31
17:58:03.514168 419.02 1268 3880 13816 349 248 -26
17:58:03.515793 419.03 1340 3768 13788 417 147 -28
17:58:03.538673 419.04 1368 3856 13928 508 134 -31
17:58:03.551727 419.05 1292 3900 13876 435 161 -50
17:58:03.552843 419.06 1360 3872 13928 371 243 -27
17:58:03.569434 419.07 1340 3872 13928 254 264 -61
17:58:03.581343 419.08 1252 3916 14008 165 309 -41
17:58:03.581505 419.09 1240 3836 13876 124 316 -45
17:58:03.587759 419.1 1188 3940 14016 143 272 -38
17:58:03.611762 419.11 1236 3964 13780 106 277 -57
17:58:03.621767 419.12 1256 3948 13924 61 279 -46
17:58:03.636891 419.13 1276 3896 13848 74 266 -55
17:58:03.650033 419.14 1336 3968 13896 89 222 -18
17:58:03.650436 419.15 1336 4008 13768 129 227 -42
17:58:03.650984 419.16 1244 4008 13888 210 249 -22
17:58:03.671785 419.17 1300 4040 13804 227 285 -45
17:58:03.678052 419.18 1280 4084 14000 257 315 -25
17:58:03.695677 419.19 1264 4128 13896 271 205 -35
17:58:03.704085 419.2 1284 4036 14164 484 489 -88
17:58:03.709135 419.21 1116 4104 13704 127 398 -59
17:58:03.732079 419.22 1180 3964 13616 -393 261 17
17:58:03.732529 419.23 1276 3956 13684 124 289 -44
17:58:03.732903 419.24 1324 4020 14008 427 269 -90
17:58:03.778254 419.25 1284 4060 13896 274 202 -79
17:58:03.789063 419.26 1400 4068 13880 22 269 -46
17:58:03.789205 419.27 1144 4048 13844 -58 187 -19
17:58:03.789304 419.28 1296 4072 13968 -20 156 -3
17:58:03.791915 419.29 1232 4076 14020 4 97 9
17:58:03.793474 419.3 1360 4100 13940 78 159 -36
17:58:03.804970 419.31 1232 4072 13896 126 206 -37
17:58:03.879077 419.32 1244 4216 14084 146 223 -54
17:58:03.890802 419.33 1292 4052 13900 67 235 -50
17:58:03.891245 419.34 1300 4120 13936 -23 230 -19
17:58:03.891525 419.35 1236 4024 13840 -81 223 -17
17:58:03.891878 419.36 1220 4016 13712 -12 193 -35
17:58:03.892215 419.37 1212 4076 13888 12 240 -35
17:58:03.892798 419.38 1204 4096 13792 -163 209 -24
17:58:03.893634 419.39 1276 4124 13816 -236 193 -4
17:58:03.910793 419.4 1236 4148 13988 -238 243 11
17:58:03.921763 419.41 1264 4080 13828 -223 223 -8
17:58:03.947731 419.42 1232 4088 13920 -264 241 -12
17:58:03.963432 419.43 1248 3992 13884 -325 218 -14
17:58:03.996754 419.44 1268 4076 13764 -385 187 9
17:58:04.003227 419.45 1352 4116 13916 -419 231 8
17:58:04.003814 419.46 1340 4128 13948 -464 242 -25
17:58:04.004427 419.47 1184 4120 13808 -533 224 43
17:58:04.004830 419.48 1244 4072 13892 -526 225 2
17:58:04.032095 419.49 1212 4100 14020 -549 216 17
17:58:04.035351 419.5 1224 4060 13892 -708 210 44
17:58:04.056929 419.51 1092 3996 13952 -761 173 29
17:58:04.057071 419.52 1184 3916 13928 -790 163 49
17:58:04.057151 419.53 1284 4052 14044 -841 204 31
17:58:04.076071 419.54 1340 4084 13928 -1028 127 85
17:58:04.081927 419.55 1220 3912 13728 -1189 95 84
17:58:04.082052 419.56 1228 3876 13920 -1110 118 66
17:58:04.084798 419.57 1284 3920 13932 -1097 151 70
17:58:04.087306 419.58 1300 3964 13980 -1197 191 52
17:58:04.108562 419.59 1348 3948 13956 -1241 187 43
17:58:04.108781 419.6 1260 3912 14012 -1377 191 90
17:58:04.108942 419.61 1208 3852 13836 -1385 145 84
17:58:04.145978 419.62 1232 3832 13936 -1350 128 99
17:58:04.148851 419.63 1216 3752 14060 -1355 93 107
17:58:04.172926 419.64 1352 3760 13800 -1438 83 112
17:58:04.182180 419.65 1280 3732 14020 -1493 124 99
17:58:04.182321 419.66 1284 3524 13872 -1534 122 129
17:58:04.182425 419.67 1228 3524 13888 -1602 102 139
17:58:04.189534 419.68 1300 3592 13952 -1578 109 116
17:58:04.191361 419.69 1232 3588 14076 -1482 81 101
17:58:04.210496 419.7 1436 3576 13920 -1426 131 98
17:58:04.236037 419.71 1232 3560 13860 -1500 144 96
17:58:04.256644 419.72 1264 3564 14008 -1505 118 114
17:58:04.256974 419.73 1268 3484 13900 -1504 89 86
17:58:04.257196 419.74 1224 3456 14176 -1464 118 101
17:58:04.299818 419.75 1164 3424 14128 -1500 102 100
17:58:04.309427 419.76 1320 3384 14024 -1518 94 132
17:58:04.309686 419.77 1260 3300 13984 -1473 46 136
17:58:04.309844 419.78 1392 3376 14184 -1437 122 118
17:58:04.309994 419.79 1280 3292 14148 -1421 159 128
17:58:04.310142 419.8 1408 3312 13988 -1475 106 107
17:58:04.310289 419.81 1280 3300 14028 -1530 105 109
17:58:04.321992 419.82 1288 3364 13880 -1500 79 72
17:58:04.351777 419.83 1364 3180 14172 -1476 102 82
17:58:04.354471 419.84 1304 3132 14000 -1486 63 76
17:58:04.354592 419.85 1376 3156 14124 -1587 81 73
17:58:04.359791 419.86 1452 3092 13972 -1761 55 124
17:58:04.371028 419.87 1292 2976 13940 -1760 -36 88
17:58:04.384757 419.88 1380 2980 14068 -1599 2 84
17:58:04.408385 419.89 1284 2968 14220 -1205 88 56
17:58:04.419530 419.9 1384 3040 14256 -1098 133 51
17:58:04.421698 419.91 1248 2984 14124 -1231 125 35
17:58:04.423167 419.92 1172 2900 14036 -1397 107 69
17:58:04.444419 419.93 1244 2856 14096 -1605 -9 67
17:58:04.449942 419.94 1392 2892 13924 -1469 -91 97
17:58:04.459246 419.95 1412 2776 14372 -1405 -36 114
17:58:04.460299 419.96 1384 2976 13960 -1779 244 126
17:58:04.475952 419.97 1384 2804 13692 -2556 -93 178
17:58:04.484618 419.98 1480 2564 14640 -1891 75 8
17:58:04.507219 419.99 1388 2716 14232 -667 -62 -10
17:58:04.521107 420.0 1332 2728 13852 -1698 -430 113
17:58:04.521246 420.01 1592 2544 14220 -1497 35 54
17:58:04.521343 420.02 1324 2476 14008 -1246 -17 112
17:58:04.541876 420.03 1232 2496 13736 -1974 -406 198
17:58:04.557291 420.04 1544 2212 14000 -1472 -111 131
17:58:04.574039 420.05 1484 2468 14592 -447 62 3
17:58:04.584609 420.06 1452 2648 14692 -466 40 -13
17:58:04.585904 420.07 1440 2724 14400 -894 41 23
17:58:04.587031 420.08 1336 2648 14184 -1275 81 87
17:58:04.589655 420.09 1268 2636 14216 -1482 -14 112
17:58:04.604373 420.1 1344 2440 14140 -1560 -10 84
17:58:04.624227 420.11 1580 2444 14172 -1515 1 53
17:58:04.626488 420.12 1428 2416 14184 -1589 78 40
17:58:04.639319 420.13 1384 2228 13992 -1544 113 37
17:58:04.676185 420.14 1476 2188 14064 -1312 -7 47
17:58:04.684586 420.15 1400 2140 13952 -1046 -22 29
17:58:04.684727 420.16 1480 2108 14220 -762 -15 -2
17:58:04.684831 420.17 1488 2132 14392 -683 -15 20
17:58:04.684932 420.18 1444 2188 14292 -766 51 -15
17:58:04.697329 420.19 1516 2148 14356 -827 100 -1
17:58:04.723576 420.2 1552 2208 14276 -911 67 -27
17:58:04.723685 420.21 1468 2160 14224 -986 101 -30
17:58:04.723754 420.22 1348 2092 14304 -1058 70 -22
17:58:04.745723 420.23 1484 2228 14232 -1122 122 -42
17:58:04.756797 420.24 1536 2092 14176 -1186 74 -2
17:58:04.778203 420.25 1400 2016 14172 -1233 109 -32
17:58:04.789695 420.26 1524 2176 14168 -1118 34 -23
17:58:04.789888 420.27 1392 2080 14232 -923 69 -40
17:58:04.808310 420.28 1484 2092 14272 -815 66 -33
17:58:04.821768 420.29 1508 2080 14280 -651 127 -3
17:58:04.821879 420.3 1420 2124 14448 -608 156 -36
17:58:04.822149 420.31 1524 2000 14340 -769 137 -8
17:58:04.843076 420.32 1444 2124 14304 -717 284 -39
17:58:04.856369 420.33 1428 2028 14052 -1146 75 -6
17:58:04.880352 420.34 1468 1876 14264 -1141 91 -31
17:58:04.893334 420.35 1520 1960 14232 -776 -50 -21
17:58:04.910262 420.36 1604 1884 14240 -676 4 -46
17:58:04.921997 420.37 1508 1856 14264 -714 50 -33
17:58:04.938440 420.38 1496 1832 14276 -808 -22 -6
17:58:04.948821 420.39 1540 1880 14228 -900 -56 21
17:58:04.949231 420.4 1452 1856 14164 -931 -54 -2
17:58:04.949496 420.41 1672 1932 14244 -922 -23 -42
17:58:04.949957 420.42 1484 1768 14112 -792 86 -67
17:58:04.970254 420.43 1556 1768 14344 -718 128 -72
17:58:04.980564 420.44 1472 1900 14316 -757 164 -70
17:58:04.981036 420.45 1568 1740 14240 -892 122 -54
17:58:04.981483 420.46 1524 1680 14192 -1059 114 -28
17:58:05.001117 420.47 1636 1624 14228 -904 88 -29
17:58:05.012859 420.48 1672 1568 14284 -738 47 -69
17:58:05.013126 420.49 1544 1644 14180 -737 76 -39
17:58:05.019701 420.5 1444 1708 14076 -749 89 -10
17:58:05.036563 420.51 1484 1628 14100 -665 51 -52
17:58:05.037757 420.52 1480 1672 14332 -542 15 -1
17:58:05.059430 420.53 1556 1732 14240 -451 52 -10
17:58:05.063863 420.54 1544 1504 14388 -468 99 -6
17:58:05.077535 420.55 1516 1584 14144 -548 50 48
17:58:05.086381 420.56 1528 1628 14256 -491 75 38
17:58:05.087014 420.57 1560 1644 14332 -357 151 23
17:58:05.094900 420.58 1512 1624 14280 -233 174 26
17:58:05.110567 420.59 1644 1632 14052 -152 125 1
17:58:05.117298 420.6 1680 1552 14316 -121 163 47
17:58:05.131985 420.61 1568 1604 14264 22 163 1
17:58:05.140027 420.62 1552 1576 14168 108 166 24
17:58:05.147393 420.63 1580 1448 14168 166 174 8
17:58:05.171694 420.64 1580 1604 14184 249 213 17
17:58:05.184127 420.65 1552 1724 14280 291 264 1
17:58:05.184379 420.66 1504 1604 14192 278 263 37
17:58:05.208243 420.67 1592 1712 14148 332 234 19
17:58:05.216167 420.68 1604 1712 14184 379 260 -23
17:58:05.216678 420.69 1636 1732 14120 439 269 -1
17:58:05.231712 420.7 1588 1692 14188 488 264 -38
17:58:05.240530 420.71 1572 1796 14300 585 302 -26
17:58:05.255012 420.72 1560 1744 14340 499 333 -55
17:58:05.264764 420.73 1580 1884 14216 359 296 -50
17:58:05.284083 420.74 1560 1752 14200 384 241 -8
17:58:05.291288 420.75 1664 1796 14264 420 229 -32
17:58:05.291404 420.76 1524 1692 14332 501 267 19
17:58:05.296992 420.77 1496 1784 14232 504 261 -26
17:58:05.312069 420.78 1628 1724 14348 492 258 8
17:58:05.312431 420.79 1624 1812 14244 548 242 -10
17:58:05.328022 420.8 1548 1768 14268 592 308 1
17:58:05.335827 420.81 1520 1872 14364 561 279 -19
17:58:05.361517 420.82 1560 1908 14320 538 293 -26
17:58:05.369129 420.83 1584 1876 14168 527 291 -2
17:58:05.382488 420.84 1656 1816 14160 464 304 0
17:58:05.390573 420.85 1604 1872 14112 274 251 16
17:58:05.390729 420.86 1588 1888 14168 289 174 -12
17:58:05.394619 420.87 1692 1936 14352 575 224 10
17:58:05.412247 420.88 1564 1952 14324 845 381 -45
17:58:05.423015 420.89 1632 2056 14500 935 417 -57
17:58:05.443033 420.9 1504 1952 14188 781 364 -38
17:58:05.451278 420.91 1456 1996 14020 582 290 -6
17:58:05.465784 420.92 1484 1904 13988 580 157 18
17:58:05.475954 420.93 1640 2012 14304 746 190 16
17:58:05.476142 420.94 1596 2160 14456 722 512 12
17:58:05.477541 420.95 1512 2280 13644 -33 444 25
17:58:05.492340 420.96 1628 1964 14292 126 297 43
17:58:05.516947 420.97 1588 2064 14592 1699 430 -130
17:58:05.527049 420.98 1544 2344 13944 835 10 -12
17:58:05.529642 420.99 1552 2020 14188 822 367 -66
17:58:05.559556 421.0 1372 2152 13844 984 289 -9
17:58:05.561814 421.01 1576 2216 13576 -9 -60 110
17:58:05.561996 421.02 1560 1968 13888 469 249 55
17:58:05.582429 421.03 1664 2200 14424 1513 306 -10
17:58:05.594530 421.04 1552 2380 14740 1598 395 -64
17:58:05.594728 421.05 1496 2460 14520 1305 395 -61
17:58:05.618123 421.06 1412 2512 14260 943 433 -18
17:58:05.628381 421.07 1444 2432 14396 681 437 20
17:58:05.628559 421.08 1468 2456 14316 584 361 32
17:58:05.653302 421.09 1580 2468 14248 559 319 4
17:58:05.663193 421.1 1436 2388 14112 661 399 0
17:58:05.682580 421.11 1444 2396 14000 675 387 -11
17:58:05.695892 421.12 1416 2388 13996 766 316 7
17:58:05.696000 421.13 1484 2296 13904 1092 288 -28
17:58:05.696075 421.14 1512 2368 14236 1407 298 -32
17:58:05.696147 421.15 1484 2416 14368 1523 314 -48
17:58:05.713864 421.16 1468 2544 14248 1361 363 -58
17:58:05.725669 421.17 1592 2596 14364 1145 468 -57
17:58:05.727216 421.18 1504 2704 14140 941 401 -31
17:58:05.729835 421.19 1496 2708 14160 860 361 -31
17:58:05.749789 421.2 1528 2616 14124 798 380 -57
17:58:05.755449 421.21 1476 2724 14116 847 317 -44
17:58:05.782910 421.22 1488 2652 14248 802 269 -41
17:58:05.790594 421.23 1512 2700 14188 826 270 -22
17:58:05.790773 421.24 1536 2740 13988 891 293 -52
17:58:05.791905 421.25 1548 2776 14096 1021 273 -46
17:58:05.817076 421.26 1472 2756 14152 1150 338 -58
17:58:05.826239 421.27 1440 2780 14176 1261 360 -61
17:58:05.831838 421.28 1484 3044 14260 1355 372 -95
17:58:05.833340 421.29 1420 2944 14284 1216 315 -102
17:58:05.849458 421.3 1376 3008 14336 1371 704 -114
17:58:05.858365 421.31 1344 2980 14056 918 379 -68
17:58:05.879725 421.32 1472 3052 14024 665 472 -63
17:58:05.897319 421.33 1380 2964 13732 807 316 -74
17:58:05.897506 421.34 1412 2956 14152 1216 242 -135
17:58:05.897638 421.35 1484 2988 14180 1346 325 -139
17:58:05.914237 421.36 1456 3172 14136 985 346 -115
17:58:05.924187 421.37 1496 3168 14248 772 342 -67
17:58:05.926825 421.38 1344 3164 14060 735 187 -69
17:58:05.984605 421.39 1432 3060 14028 649 198 -82
17:58:05.996438 421.4 1440 3136 14068 746 226 -90
17:58:05.996571 421.41 1472 3220 14152 884 230 -92
17:58:06.016278 421.42 1488 3324 14124 932 263 -128
17:58:06.029380 421.43 1464 3256 14148 918 322 -122
17:58:06.034912 421.44 1388 3240 14096 835 292 -82
17:58:06.037296 421.45 1388 3244 13984 784 289 -106
17:58:06.057427 421.46 1400 3136 14328 850 311 -105
17:58:06.057594 421.47 1344 3308 14080 872 303 -77
17:58:06.057720 421.48 1432 3312 13968 769 251 -46
17:58:06.057841 421.49 1528 3292 13864 787 263 -93
17:58:06.057961 421.5 1316 3332 14060 932 318 -91
17:58:06.061935 421.51 1320 3364 14036 905 329 -88
17:58:06.090254 421.52 1264 3432 13980 838 366 -106
17:58:06.091360 421.53 1372 3412 14092 729 229 -46
17:58:06.092601 421.54 1272 3448 14208 633 328 -69
17:58:06.150516 421.55 1376 3492 13936 713 270 -72
17:58:06.158003 421.56 1432 3540 14024 682 333 -76
17:58:06.158197 421.57 1332 3488 14012 610 336 -72
17:58:06.158374 421.58 1312 3572 14116 655 294 -90
17:58:06.158555 421.59 1332 3612 14052 632 265 -77
17:58:06.158734 421.6 1336 3580 13968 609 312 -94
17:58:06.170150 421.61 1388 3636 13932 738 350 -94
17:58:06.194379 421.62 1364 3620 13944 703 320 -60
17:58:06.194536 421.63 1376 3524 13860 626 288 -64
17:58:06.194718 421.64 1416 3640 14044 614 280 -65
17:58:06.235057 421.65 1384 3552 14024 658 277 -74
17:58:06.237218 421.66 1348 3652 14060 642 304 -77
17:58:06.260201 421.67 1284 3644 14024 625 263 -58
17:58:06.260319 421.68 1344 3684 13880 604 282 -111
17:58:06.260393 421.69 1308 3692 13996 613 293 -78
17:58:06.266686 421.7 1444 3768 14004 606 283 -81
17:58:06.268372 421.71 1508 3820 13888 586 258 -87
17:58:06.288564 421.72 1380 3824 13888 555 301 -118
17:58:06.305694 421.73 1360 3740 14032 524 269 -87
17:58:06.328254 421.74 1280 3780 14004 502 304 -63
17:58:06.350598 421.75 1360 3764 13860 501 282 -72
17:58:06.359790 421.76 1324 3820 14052 477 291 -66
17:58:06.382791 421.77 1352 3744 13916 489 267 -43
17:58:06.391068 421.78 1252 3876 13936 445 281 -72
17:58:06.391192 421.79 1360 3848 13860 442 285 -44
17:58:06.391266 421.8 1284 3864 14000 414 268 -45
17:58:06.391335 421.81 1240 3904 13904 396 286 -58
17:58:06.391420 421.82 1332 3980 13904 387 281 -61
17:58:06.391529 421.83 1340 3980 13912 380 283 -66
17:58:06.399565 421.84 1460 3972 13876 296 293 -62
17:58:06.453023 421.85 1320 3988 13848 312 293 -76
17:58:06.460772 421.86 1288 3936 13820 341 320 -59
17:58:06.461059 421.87 1392 4012 13940 318 300 -60
17:58:06.461404 421.88 1332 3868 13996 368 302 -62
17:58:06.461657 421.89 1224 3948 13896 328 299 -56
17:58:06.461972 421.9 1312 3992 13844 260 322 -67
17:58:06.467068 421.91 1244 3932 13812 149 300 -60
17:58:06.491043 421.92 1300 4068 13676 62 201 -20
17:58:06.502052 421.93 1312 3928 13888 4 210 -17
17:58:06.502724 421.94 1268 3928 13820 235 283 -65
17:58:06.505126 421.95 1300 3996 14068 407 372 -91
17:58:06.537105 421.96 1252 4044 13940 355 379 -83
17:58:06.545367 421.97 1312 4184 13884 168 386 -86
17:58:06.566185 421.98 1264 4064 13744 21 310 -83
17:58:06.604829 421.99 1256 4036 13804 84 210 -74
17:58:06.615707 422.0 1244 4080 14000 61 171 3
17:58:06.706349 422.01 1228 4048 13612 -508 333 55
17:58:06.716540 422.02 1392 3816 13656 -638 31 93
17:58:06.716731 422.03 1560 4044 14436 382 442 -48
17:58:06.716858 422.04 1332 4288 14124 724 367 -180
17:58:06.716969 422.05 1356 4068 13832 -255 98 -15
17:58:06.717074 422.06 1324 4040 13800 -171 266 1
17:58:06.717236 422.07 1184 4092 13660 -406 177 82
17:58:06.717482 422.08 1252 3888 13352 -688 -13 121
17:58:06.717727 422.09 1324 3752 13676 -104 32 60
17:58:06.717971 422.1 1456 4024 13940 150 -31 39
17:58:06.718213 422.11 1352 4180 14040 58 -108 39
17:58:06.718461 422.12 1148 4024 13996 -127 -21 64
17:58:06.718710 422.13 1168 4200 13860 6 74 41
17:58:06.724298 422.14 1384 4108 13900 91 154 25
17:58:06.756128 422.15 1284 4196 13844 177 234 -29
17:58:06.756269 422.16 1148 4112 13724 169 316 -45
17:58:06.770461 422.17 1300 4052 13716 100 275 -43
17:58:06.829703 422.18 1264 3888 13840 257 212 -49
17:58:06.835339 422.19 1364 4144 13772 400 142 -44
17:58:06.835443 422.2 1328 4136 13836 393 129 -24
17:58:06.835517 422.21 1320 4148 14012 355 157 -40
17:58:06.855224 422.22 1256 4048 13904 241 214 -36
17:58:06.864026 422.23 1452 4044 13916 96 230 -48
17:58:06.872676 422.24 1320 4168 13844 35 285 -34
17:58:06.919093 422.25 1384 4100 13744 -25 264 -45
17:58:06.937685 422.26 1332 4084 13864 -57 249 -1
17:58:06.938791 422.27 1228 4124 13864 -98 240 15
17:58:07.000946 422.28 1208 4112 13864 -141 228 -20
17:58:07.029178 422.29 1304 4192 13844 -127 214 3
17:58:07.032011 422.3 1164 4160 13768 -114 237 -27
17:58:07.032297 422.31 1376 4080 13812 -61 220 -4
17:58:07.032596 422.32 1340 4172 13804 -16 233 -13
17:58:07.034673 422.33 1308 4224 13720 -15 293 -19
17:58:07.035796 422.34 1344 4172 13740 41 278 -53
17:58:07.065969 422.35 1196 4152 13764 31 131 -22
17:58:07.067042 422.36 1128 4284 13660 -128 386 -21
17:58:07.068274 422.37 1200 4152 13544 -721 240 36
17:58:07.069393 422.38 1296 4232 13840 -273 137 14
17:58:07.072694 422.39 1436 4116 13864 -287 111 -16
17:58:07.087842 422.4 1300 4160 13976 -361 216 1
17:58:07.096361 422.41 1288 4176 13824 -395 141 -18
17:58:07.096535 422.42 1188 4196 13808 -343 135 -3
17:58:07.096675 422.43 1352 4152 13936 -394 145 -8
17:58:07.103016 422.44 1300 4200 13748 -449 159 31
17:58:07.105782 422.45 1248 4068 13936 -522 157 42
17:58:07.107195 422.46 1228 4096 13804 -557 145 33
17:58:07.129778 422.47 1316 4096 13900 -569 132 38
17:58:07.129941 422.48 1356 4032 14044 -606 148 37
17:58:07.134570 422.49 1348 4116 13820 -870 139 51
17:58:07.163289 422.5 1340 4080 13852 -900 135 76
17:58:07.164305 422.51 1280 4080 14040 -876 184 56
17:58:07.165623 422.52 1300 3980 13804 -937 162 57
17:58:07.172585 422.53 1300 4000 13924 -1000 123 53
17:58:07.184288 422.54 1344 4088 13888 -1042 127 85
17:58:07.196545 422.55 1376 4056 13860 -1040 186 68
17:58:07.201971 422.56 1280 4036 13876 -1102 178 54
17:58:07.219780 422.57 1340 3980 13948 -1194 204 84
17:58:07.228632 422.58 1308 3904 13900 -1245 157 101
17:58:07.231998 422.59 1256 3936 13908 -1299 112 137
17:58:07.239876 422.6 1244 3896 13916 -1259 82 138
17:58:07.258281 422.61 1336 3880 13932 -1188 82 108
17:58:07.286515 422.62 1372 3804 14080 -1235 113 93
17:58:07.298048 422.63 1408 3888 14000 -1223 118 80
17:58:07.298199 422.64 1436 3824 14012 -1275 91 88
17:58:07.301996 422.65 1416 3728 14020 -1351 220 82
17:58:07.304501 422.66 1356 3820 13872 -1457 163 101
17:58:07.320459 422.67 1300 3740 13920 -1531 95 87
17:58:07.339412 422.68 1312 3636 13924 -1458 94 102
17:58:07.341499 422.69 1316 3548 14000 -1394 97 120
17:58:07.354290 422.7 1252 3612 14044 -1323 113 123
17:58:07.363485 422.71 1288 3468 13968 -1336 151 95
17:58:07.376725 422.72 1316 3592 13992 -1346 84 97
17:58:07.399625 422.73 1392 3540 14080 -1339 95 90
17:58:07.399740 422.74 1388 3472 13924 -1278 30 93
17:58:07.400691 422.75 1444 3468 14008 -1299 99 109
17:58:07.425536 422.76 1344 3396 13972 -1368 110 83
17:58:07.434048 422.77 1372 3376 14032 -1383 104 96
17:58:07.434353 422.78 1368 3436 13984 -1278 103 109
17:58:07.434575 422.79 1272 3364 14036 -1274 135 98
17:58:07.459632 422.8 1260 3280 14092 -1363 100 89
17:58:07.471002 422.81 1332 3316 14120 -1378 102 87
17:58:07.474124 422.82 1432 3252 14060 -1405 45 132
17:58:07.475824 422.83 1332 3248 13948 -1355 80 96
17:58:07.506492 422.84 1404 3184 13996 -1351 74 93
17:58:07.507092 422.85 1452 3240 14152 -1437 98 113
17:58:07.570213 422.86 1376 3212 14112 -1343 76 100
17:58:07.581873 422.87 1368 3188 14044 -1340 141 104
17:58:07.582088 422.88 1400 3116 14088 -1433 102 101
17:58:07.582449 422.89 1440 3120 14076 -1360 103 104
17:58:07.582804 422.9 1472 3108 14148 -1306 129 48
17:58:07.583190 422.91 1380 3032 14028 -1309 132 73
17:58:07.583510 422.92 1520 3060 13896 -1421 132 70
17:58:07.594961 422.93 1468 2968 14116 -1529 122 71
17:58:07.616933 422.94 1324 2968 14032 -1644 13 121
17:58:07.669711 422.95 1492 2868 13956 -1630 39 90
17:58:07.685216 422.96 1452 2796 14252 -1381 116 47
17:58:07.685446 422.97 1400 2884 14164 -1044 186 13
17:58:07.685614 422.98 1404 2980 14220 -1168 130 37
17:58:07.685773 422.99 1452 2828 14112 -1347 110 52
17:58:07.685930 423.0 1404 2812 14024 -1423 -5 63
17:58:07.686088 423.01 1452 2728 14004 -1280 -71 76
17:58:07.686245 423.02 1524 2636 14400 -1213 91 91
17:58:07.689432 423.03 1388 2868 13856 -1777 318 92
17:58:07.714431 423.04 1512 2584 13988 -2257 -126 118
17:58:07.718328 423.05 1596 2464 14788 -882 310 -26
17:58:07.740089 423.06 1412 2788 14012 -706 -238 15
17:58:07.751173 423.07 1484 2652 13992 -1723 -352 101
17:58:07.751353 423.08 1428 2420 14204 -990 193 26
17:58:07.751540 423.09 1296 2408 13768 -1431 -236 130
17:58:07.775056 423.1 1560 2336 13816 -1883 -312 205
17:58:07.784651 423.11 1672 2344 14160 -1025 25 104
17:58:07.789254 423.12 1600 2468 14568 -335 56 -7
17:58:07.791351 423.13 1380 2688 14596 -728 -3 40
17:58:07.795420 423.14 1412 2584 14372 -1122 42 67
17:58:07.820025 423.15 1348 2552 14340 -1316 53 53
17:58:07.835326 423.16 1416 2452 14204 -1456 65 32
17:58:07.856314 423.17 1676 2460 14224 -1445 70 40
17:58:07.856442 423.18 1484 2360 14232 -1473 112 44
17:58:07.857306 423.19 1476 2236 13952 -1509 66 45
17:58:07.871555 423.2 1576 2212 13932 -1384 56 30
17:58:07.887973 423.21 1576 2128 13880 -1167 -5 31
17:58:07.913484 423.22 1624 2048 14056 -778 -95 61
17:58:07.917393 423.23 1692 2100 14384 -559 -13 50
17:58:07.917493 423.24 1668 2148 14376 -560 56 29
17:58:07.944685 423.25 1592 2204 14312 -626 101 9
17:58:07.952915 423.26 1572 2152 14180 -779 81 34
17:58:07.953008 423.27 1560 2164 14120 -855 147 -3
17:58:07.953071 423.28 1660 2196 14320 -980 123 2
17:58:07.953133 423.29 1616 2112 14248 -985 137 -9
17:58:07.971798 423.3 1532 2060 14116 -1041 68 -24
17:58:07.995303 423.31 1652 2052 14096 -1186 57 22
17:58:08.024878 423.32 1552 2008 14212 -1005 60 -9
17:58:08.025092 423.33 1616 2060 14212 -954 73 -26
17:58:08.025170 423.34 1564 2128 14304 -913 111 -17
17:58:08.025768 423.35 1568 2056 14312 -715 146 -13
17:58:08.027158 423.36 1480 2032 14188 -633 119 17
17:58:08.056128 423.37 1524 2044 14240 -644 126 -11
17:58:08.058775 423.38 1608 1988 14520 -488 286 -14
17:58:08.059221 423.39 1504 2076 14240 -484 294 0
17:58:08.064718 423.4 1548 1996 14044 -979 140 8
17:58:08.084686 423.41 1636 1880 14164 -895 182 -25
17:58:08.087026 423.42 1660 1852 14124 -744 24 -55
17:58:08.112251 423.43 1620 1812 14192 -667 38 -41
17:58:08.120637 423.44 1512 1972 14300 -538 57 -33
17:58:08.154972 423.45 1532 1912 14232 -605 70 -15
17:58:08.156095 423.46 1460 1896 14308 -644 47 -17
17:58:08.157341 423.47 1536 1832 14176 -715 2 0
17:58:08.160543 423.48 1608 1940 14220 -733 38 8
17:58:08.181407 423.49 1528 1880 14308 -549 73 -49
17:58:08.189518 423.5 1656 1752 14432 -552 172 -51
17:58:08.189666 423.51 1792 1932 14420 -494 235 -52
17:58:08.189781 423.52 1648 1888 14252 -602 222 -62
17:58:08.191985 423.53 1612 1848 14192 -796 187 -10
17:58:08.207047 423.54 1604 1772 14304 -879 132 -36
17:58:08.232088 423.55 1604 1664 14188 -719 90 -39
17:58:08.250791 423.56 1680 1656 14256 -653 81 -46
17:58:08.251130 423.57 1572 1792 14176 -614 114 -41
17:58:08.251464 423.58 1584 1572 14160 -605 76 0
17:58:08.252070 423.59 1568 1592 14132 -385 72 12
17:58:08.280786 423.6 1632 1732 14320 -267 74 6
17:58:08.291536 423.61 1664 1840 14176 -170 130 19
17:58:08.292736 423.62 1624 1732 14080 -231 153 -8
17:58:08.308918 423.63 1616 1704 14212 -299 125 52
17:58:08.320601 423.64 1700 1744 14164 -175 177 44
17:58:08.329296 423.65 1600 1740 14316 -101 205 -6
17:58:08.331087 423.66 1572 1704 14136 -55 207 36
17:58:08.342791 423.67 1644 1636 14152 43 186 14
17:58:08.375117 423.68 1560 1684 14116 151 223 -8
17:58:08.386317 423.69 1688 1744 14144 273 238 10
17:58:08.392754 423.7 1600 1704 14224 334 265 8
17:58:08.393843 423.71 1608 1816 14104 344 271 3
17:58:08.395445 423.72 1492 1780 14276 340 264 11
17:58:08.401939 423.73 1572 1728 14112 407 275 -26
17:58:08.426918 423.74 1708 1824 14136 447 255 -5
17:58:08.428668 423.75 1608 1712 14220 442 254 -5
17:58:08.452725 423.76 1604 1788 14252 516 268 -16
17:58:08.453768 423.77 1592 1820 14220 544 287 -8
17:58:08.454993 423.78 1728 1820 14308 522 336 -53
17:58:08.462193 423.79 1664 1788 14320 466 309 -35
17:58:08.487097 423.8 1600 1896 14176 445 286 -38
17:58:08.487826 423.81 1572 1904 14368 402 276 -33
17:58:08.513057 423.82 1560 1964 14204 358 259 -25
17:58:08.520648 423.83 1608 1924 14284 438 209 -12
17:58:08.520829 423.84 1656 1876 14168 479 241 -28
17:58:08.522160 423.85 1548 1848 14140 522 244 -30
17:58:08.529744 423.86 1528 1992 14224 601 280 -29
17:58:08.544396 423.87 1612 1888 14160 592 227 -5
17:58:08.562608 423.88 1524 2008 14144 593 233 -9
17:58:08.565713 423.89 1560 2020 14264 603 260 -21
17:58:08.568427 423.9 1656 1972 14208 626 290 -24
17:58:08.587619 423.91 1720 2012 14288 609 326 -35
17:58:08.597201 423.92 1624 2108 14192 655 382 -42
17:58:08.612732 423.93 1680 2080 14372 658 422 -56
17:58:08.629151 423.94 1468 2140 14232 527 362 -30
17:58:08.630100 423.95 1616 2096 14020 384 276 -5
17:58:08.644196 423.96 1524 2160 14152 330 217 2
17:58:08.656658 423.97 1660 2112 14140 327 192 16
17:58:08.656868 423.98 1548 2084 14328 589 300 -8
17:58:08.664577 423.99 1600 2204 14372 938 364 -28
17:58:08.679961 424.0 1652 2232 14272 864 375 -62
17:58:08.711649 424.01 1528 2228 14076 718 336 -27
17:58:08.720874 424.02 1544 2064 13932 647 283 -17
17:58:08.721005 424.03 1508 2196 14080 782 205 -26
17:58:08.727263 424.04 1624 2244 14408 843 312 0
17:58:08.729883 424.05 1600 2456 14276 350 549 14
17:58:08.749471 424.06 1420 2280 13696 -378 161 70
17:58:08.757925 424.07 1748 2064 14744 610 465 -63
17:58:08.762032 424.08 1712 2368 14536 1551 309 -124
17:58:08.790440 424.09 1500 2448 13796 136 -135 -1
17:58:08.791569 424.1 1720 2112 14328 626 388 -67
17:58:08.792682 424.11 1504 2412 14088 714 192 -53
17:58:08.799621 424.12 1484 2272 13548 -455 -134 124
17:58:08.811784 424.13 1496 2136 13956 264 224 86
17:58:08.824347 424.14 1672 2232 14428 1157 267 -22
17:58:08.850643 424.15 1656 2572 14556 1270 264 -75
17:58:08.857861 424.16 1516 2652 14256 876 267 -34
17:58:08.858175 424.17 1400 2584 14212 580 287 30
17:58:08.860067 424.18 1532 2596 14372 525 301 56
17:58:08.884597 424.19 1476 2628 14300 588 258 37
17:58:08.897887 424.2 1664 2660 14256 582 306 -9
17:58:08.900003 424.21 1520 2544 14108 508 403 -19
17:58:08.902233 424.22 1592 2612 13932 525 342 -28
17:58:08.922776 424.23 1556 2536 13808 598 327 -19
17:58:08.924832 424.24 1552 2520 14060 865 286 -1
17:58:08.944293 424.25 1532 2492 14088 1091 249 -54
17:58:08.945877 424.26 1508 2564 14276 1096 283 -31
17:58:08.960534 424.27 1684 2636 14208 972 333 -51
17:58:08.971828 424.28 1496 2636 14356 875 365 -19
17:58:08.979588 424.29 1612 2652 14208 787 345 -52
17:58:09.002714 424.3 1524 2844 14232 755 314 -59
17:58:09.032377 424.31 1604 2724 14144 720 294 -25
17:58:09.041833 424.32 1464 2792 14128 667 321 -65
17:58:09.042092 424.33 1452 2812 14128 640 305 -72
17:58:09.042286 424.34 1608 2812 14024 655 295 -65
17:58:09.042469 424.35 1512 2792 13984 736 259 -64
17:58:09.064377 424.36 1464 2740 14016 870 290 -81
17:58:09.081112 424.37 1448 2916 14188 997 311 -63
17:58:09.081246 424.38 1504 2964 14244 1151 333 -81
17:58:09.081590 424.39 1384 3084 14152 1073 336 -116
17:58:09.101599 424.4 1524 2924 14304 1141 504 -119
17:58:09.112221 424.41 1572 3052 14168 1128 592 -116
17:58:09.117178 424.42 1408 3048 13976 467 418 -46
17:58:09.139474 424.43 1448 3000 13844 411 356 -83
17:58:09.139676 424.44 1340 2916 14036 849 297 -121
17:58:09.142185 424.45 1472 3048 14356 1185 276 -141
17:58:09.161290 424.46 1604 3068 13944 895 285 -97
17:58:09.182880 424.47 1404 3128 14148 741 338 -101
17:58:09.195910 424.48 1408 3128 14088 757 211 -54
17:58:09.196036 424.49 1496 3168 14044 721 137 -51
17:58:09.197139 424.5 1560 3180 13968 776 205 -72
17:58:09.215409 424.51 1408 3244 14056 888 257 -104
17:58:09.224706 424.52 1552 3264 14160 940 251 -115
17:58:09.224804 424.53 1508 3292 14220 913 294 -139
17:58:09.242022 424.54 1512 3244 14096 767 303 -137
17:58:09.253800 424.55 1464 3296 14060 611 327 -92
17:58:09.257016 424.56 1424 3176 14124 592 315 -112
17:58:09.281848 424.57 1440 3276 13888 665 298 -105
17:58:09.284644 424.58 1440 3240 13952 583 301 -91
17:58:09.297543 424.59 1584 3288 13824 494 282 -57
17:58:09.309361 424.6 1412 3300 14204 607 331 -90
17:58:09.326533 424.61 1480 3304 13888 692 319 -98
17:58:09.336779 424.62 1436 3372 13964 721 269 -100
17:58:09.337246 424.63 1412 3372 13932 679 224 -59
17:58:09.339664 424.64 1408 3360 13992 630 250 -61
17:58:09.385177 424.65 1360 3448 13908 692 265 -57
17:58:09.386325 424.66 1480 3496 14080 701 261 -49
17:58:09.391270 424.67 1524 3568 13984 631 296 -40
17:58:09.391554 424.68 1448 3536 13956 650 293 -100
17:58:09.408749 424.69 1436 3592 13872 626 273 -34
17:58:09.429726 424.7 1372 3564 13944 612 244 -66
17:58:09.441482 424.71 1416 3568 14100 614 299 -94
17:58:09.441696 424.72 1324 3552 14024 645 264 -80
17:58:09.441998 424.73 1420 3608 14032 580 276 -63
17:58:09.442325 424.74 1384 3552 13824 504 264 -78
17:58:09.452878 424.75 1476 3560 13920 512 250 -83
17:58:09.474186 424.76 1400 3556 13792 541 245 -47
17:58:09.474504 424.77 1416 3544 13944 624 259 -64
17:58:09.496299 424.78 1368 3596 13992 543 287 -72
17:58:09.509837 424.79 1444 3668 13944 553 293 -88
17:58:09.510011 424.8 1556 3648 13908 564 293 -61
17:58:09.511749 424.81 1424 3724 13880 540 289 -95
17:58:09.536754 424.82 1396 3712 13820 544 290 -70
17:58:09.544711 424.83 1600 3716 13920 520 257 -85
17:58:09.551805 424.84 1332 3804 14072 502 304 -84
17:58:09.553411 424.85 1388 3760 13864 507 310 -76
17:58:09.576816 424.86 1440 3752 13952 471 280 -83
17:58:09.577912 424.87 1348 3760 13936 485 301 -53
17:58:09.580448 424.88 1404 3808 13960 431 263 -48
17:58:09.596149 424.89 1460 3768 13904 429 257 -47
17:58:09.619387 424.9 1368 3776 13916 400 218 -58
17:58:09.620801 424.91 1388 3824 13904 418 269 -92
17:58:09.634969 424.92 1456 3816 13832 403 261 -71
17:58:09.643999 424.93 1248 3752 13916 433 298 -79
17:58:09.646946 424.94 1312 3892 13896 420 265 -70
17:58:09.654737 424.95 1376 3928 13856 431 205 -60
17:58:09.676354 424.96 1328 3932 13808 436 318 -48
17:58:09.677048 424.97 1344 3780 13984 265 296 -74
17:58:09.696040 424.98 1448 3960 13956 291 331 -51
17:58:09.711252 424.99 1336 3868 13920 268 262 -57
17:58:09.716498 425.0 1360 3920 14048 275 293 -50
17:58:09.718638 425.01 1320 3960 13984 274 304 -34
17:58:09.731553 425.02 1372 3868 13888 255 281 -44
17:58:09.768295 425.03 1364 3920 13856 265 246 -62
17:58:09.775539 425.04 1480 4044 13852 266 268 -55
17:58:09.775656 425.05 1436 3956 14000 277 264 -63
17:58:09.775735 425.06 1292 3992 14080 269 291 -54
17:58:09.805237 425.07 1280 3964 13892 289 294 -60
17:58:09.817744 425.08 1304 3988 13800 266 312 -65
17:58:09.819266 425.09 1336 4048 13752 118 287 -34
17:58:09.820233 425.1 1292 3916 13772 16 221 -37
17:58:09.841225 425.11 1364 3980 13896 -61 210 6
17:58:09.845569 425.12 1360 3956 13900 32 238 -39
17:58:09.845728 425.13 1376 4080 14092 338 406 -58
17:58:09.849898 425.14 1408 4148 13904 304 405 -114
17:58:09.875490 425.15 1372 4168 13868 170 350 -103
17:58:09.884620 425.16 1276 4100 13644 -34 325 -65
17:58:09.911033 425.17 1372 4012 13792 -47 231 -26
17:58:09.915728 425.18 1332 4092 13944 12 163 -39
17:58:09.915898 425.19 1256 4180 13800 -271 311 46
17:58:09.938073 425.2 1232 3956 13468 -901 72 99
17:58:09.945343 425.21 1676 3952 14284 316 514 -72
17:58:09.945466 425.22 1372 4248 14236 636 378 -142
17:58:09.956654 425.23 1292 4228 13968 -245 -8 -20
17:58:09.978101 425.24 1284 3940 13828 -204 217 5
17:58:09.978347 425.25 1104 4052 13568 -458 169 65
17:58:09.978639 425.26 1064 3924 13288 -844 -104 155
17:58:10.003902 425.27 1380 3808 13560 -201 22 117
17:58:10.018319 425.28 1400 3968 13936 173 -30 33
17:58:10.020395 425.29 1268 4196 14112 130 -110 8
17:58:10.031570 425.3 1472 4128 14008 -51 -137 78
17:58:10.048878 425.31 1356 4172 13976 -240 7 21
17:58:10.054355 425.32 1236 4096 13972 -162 52 42
17:58:10.055859 425.33 1304 4132 13888 -106 120 13
17:58:10.080061 425.34 1380 4056 13964 18 238 -21
17:58:10.080193 425.35 1232 4072 13704 11 260 -30
17:58:10.103392 425.36 1344 4020 13820 -28 210 -4
17:58:10.113319 425.37 1424 3988 13764 73 199 -4
17:58:10.114029 425.38 1368 4056 13936 144 154 -17
17:58:10.116334 425.39 1492 4000 13996 102 190 -37
17:58:10.136485 425.4 1416 3984 14004 16 162 -5
17:58:10.145262 425.41 1384 4088 14016 -107 216 -42
17:58:10.149411 425.42 1364 4092 13860 -259 214 -28
17:58:10.170610 425.43 1464 4016 13940 -311 227 8
17:58:10.179011 425.44 1348 4088 13948 -350 240 19
17:58:10.179265 425.45 1352 4024 13976 -370 223 -19
17:58:10.186892 425.46 1328 4040 13816 -459 211 21
17:58:10.212192 425.47 1308 3984 13924 -533 222 30
17:58:10.215342 425.48 1368 4016 13684 -497 237 8
17:58:10.234166 425.49 1352 4080 13816 -442 207 0
17:58:10.246505 425.5 1388 4052 13944 -448 215 15
17:58:10.246851 425.51 1404 4124 13864 -391 238 -2
17:58:10.275239 425.52 1320 4076 13900 -373 240 7
17:58:10.279090 425.53 1452 4004 13840 -462 136 5
17:58:10.279461 425.54 1432 4080 14304 -239 455 -47
17:58:10.284756 425.55 1296 4032 13972 -507 436 3
17:58:10.309484 425.56 1280 4000 13556 -1173 211 55
17:58:10.312664 425.57 1376 3832 13832 -785 316 -11
17:58:10.324198 425.58 1440 3944 14012 -360 223 -7
17:58:10.356053 425.59 1408 4064 14096 -552 134 17
17:58:10.356268 425.6 1372 3952 14020 -773 196 56
17:58:10.356771 425.61 1248 3980 13972 -1017 194 51
17:58:10.357146 425.62 1320 3924 14092 -1094 70 90
17:58:10.376457 425.63 1332 3968 13984 -1225 -10 101
17:58:10.390865 425.64 1524 3920 13924 -1301 31 109
17:58:10.391050 425.65 1456 3808 13964 -1274 -8 116
17:58:10.407086 425.66 1440 3780 14044 -1248 -40 112
17:58:10.418536 425.67 1500 3796 13836 -1225 -26 110
17:58:10.435770 425.68 1552 3824 13900 -1362 53 114
17:58:10.447134 425.69 1324 3764 13864 -1411 103 118
17:58:10.451787 425.7 1384 3616 14108 -1315 100 124
17:58:10.475250 425.71 1348 3664 14076 -1435 121 139
17:58:10.475599 425.72 1420 3556 13880 -1483 113 124
17:58:10.475816 425.73 1480 3596 13888 -1551 56 141
17:58:10.489990 425.74 1312 3552 14080 -1479 111 103
17:58:10.494818 425.75 1332 3536 14012 -1343 109 98
17:58:10.502847 425.76 1408 3508 14068 -1383 154 98
17:58:10.519015 425.77 1376 3428 14044 -1496 151 120
17:58:10.524383 425.78 1408 3468 13996 -1518 106 117
17:58:10.542162 425.79 1324 3500 14020 -1635 147 152
17:58:10.553072 425.8 1472 3428 13904 -1606 35 175
17:58:10.553218 425.81 1404 3328 13980 -1569 81 130
17:58:10.572635 425.82 1432 3236 13844 -1540 100 168
17:58:10.581142 425.83 1412 3348 14140 -1403 64 137
17:58:10.584821 425.84 1488 3376 14008 -1388 106 104
17:58:10.606373 425.85 1392 3284 13924 -1390 126 104
17:58:10.615786 425.86 1376 3216 14112 -1313 142 107
17:58:10.624617 425.87 1480 3224 14140 -1248 120 96
17:58:10.625981 425.88 1488 3136 14088 -1260 157 96
17:58:10.646960 425.89 1380 3088 14124 -1247 147 119
17:58:10.648301 425.9 1492 3128 14072 -1290 85 53
17:58:10.659499 425.91 1448 3156 14236 -1309 107 77
17:58:10.687485 425.92 1496 3100 14024 -1327 88 92
17:58:10.687585 425.93 1456 3064 14148 -1265 89 95
17:58:10.689557 425.94 1540 2940 14068 -1262 77 86
17:58:10.707055 425.95 1512 2920 14112 -1307 107 73
17:58:10.719442 425.96 1432 2908 14196 -1298 98 76
17:58:10.739177 425.97 1612 2984 14056 -1305 71 55
17:58:10.748861 425.98 1484 2920 14096 -1323 172 44
17:58:10.749025 425.99 1464 2908 14016 -1231 115 5
17:58:10.749158 426.0 1452 2832 14068 -1239 155 45
17:58:10.773793 426.01 1420 2820 14144 -1301 109 54
17:58:10.782618 426.02 1508 2772 14088 -1301 82 40
17:58:10.782790 426.03 1528 2860 14128 -1240 52 42
17:58:10.786744 426.04 1556 2676 14104 -1151 86 38
17:58:10.801947 426.05 1544 2788 14072 -1215 70 34
17:58:10.818923 426.06 1572 2752 14272 -1183 151 30
17:58:10.819046 426.07 1492 2688 14112 -1210 112 39
17:58:10.824468 426.08 1660 2692 14124 -1140 99 10
17:58:10.840189 426.09 1648 2728 14172 -1160 89 15
17:58:10.848802 426.1 1556 2616 14052 -1131 117 18
17:58:10.871964 426.11 1540 2640 14212 -1074 110 56
17:58:10.882531 426.12 1532 2560 14200 -1058 141 2
17:58:10.884740 426.13 1452 2524 14072 -1081 123 11
17:58:10.908381 426.14 1560 2508 14096 -1047 174 4
17:58:10.918004 426.15 1464 2520 14136 -1035 83 8
17:58:10.918346 426.16 1556 2548 14156 -1021 165 -2
17:58:10.922155 426.17 1480 2476 14168 -945 130 21
17:58:10.941737 426.18 1716 2516 14184 -970 167 -41
17:58:10.950701 426.19 1568 2596 14144 -1034 175 -35
17:58:10.961886 426.2 1492 2512 14092 -1107 179 -1
17:58:10.984227 426.21 1448 2452 14140 -1228 107 19
17:58:10.984671 426.22 1600 2348 14076 -1265 58 19
17:58:10.986250 426.23 1512 2224 14204 -1129 90 -12
17:58:11.005052 426.24 1516 2256 14256 -863 210 -15
17:58:11.018651 426.25 1544 2352 14204 -700 278 -82
17:58:11.019529 426.26 1436 2400 14224 -829 200 -65
17:58:11.048899 426.27 1416 2228 14088 -1027 97 -24
17:58:11.060507 426.28 1540 2164 14096 -1016 32 18
17:58:11.060719 426.29 1584 2312 14180 -806 56 11
17:58:11.061237 426.3 1484 2284 14552 -691 238 4
17:58:11.065407 426.31 1488 2432 14264 -1175 410 41
17:58:11.080139 426.32 1488 2212 13592 -2010 1 51
17:58:11.106742 426.33 1680 2000 14560 -1203 194 8
17:58:11.116122 426.34 1600 2116 14300 -5 62 -122
17:58:11.119567 426.35 1520 2092 13812 -1152 -303 62
17:58:11.120773 426.36 1588 1984 14448 -745 190 -50
17:58:11.125570 426.37 1368 2100 13864 -627 167 -4
17:58:11.155827 426.38 1452 2020 13620 -1466 -265 125
17:58:11.156718 426.39 1708 1868 14072 -990 31 71
17:58:11.158508 426.4 1616 1952 14504 -159 198 24
17:58:11.173308 426.41 1588 2228 14664 -72 290 -69
17:58:11.187066 426.42 1556 2212 14356 -351 188 -9
17:58:11.187269 426.43 1536 2224 14280 -594 249 25
17:58:11.204017 426.44 1496 2232 14284 -715 145 18
17:58:11.225617 426.45 1612 2084 14308 -797 155 25
17:58:11.237317 426.46 1708 2004 14084 -842 175 21
17:58:11.239399 426.47 1676 1912 14016 -723 239 -16
17:58:11.240853 426.48 1472 1940 13904 -609 162 23
17:58:11.261910 426.49 1572 1804 13880 -360 119 19
17:58:11.263461 426.5 1592 1736 14084 27 113 16
17:58:11.282767 426.51 1632 1844 14272 263 152 -1
17:58:11.295587 426.52 1616 1872 14312 265 144 -23
17:58:11.310922 426.53 1628 1960 14404 381 202 -13
17:58:11.321821 426.54 1560 1996 14320 309 271 -13
17:58:11.322638 426.55 1612 1904 14208 292 287 9
17:58:11.336832 426.56 1504 2060 14256 283 283 -18
17:58:11.339896 426.57 1548 1976 14060 269 284 -9
17:58:11.342024 426.58 1588 1976 14064 292 254 17
17:58:11.357543 426.59 1596 2080 14140 336 228 13
17:58:11.373018 426.6 1616 2108 14176 476 233 8
17:58:11.391117 426.61 1584 2096 14136 680 272 -6
17:58:11.404411 426.62 1584 2064 14220 829 290 3
17:58:11.404825 426.63 1640 2188 14296 1000 305 -9
17:58:11.409676 426.64 1576 2224 14412 1064 357 -35
17:58:11.423869 426.65 1436 2236 14224 1000 251 -60
17:58:11.442163 426.66 1544 2192 14412 1207 667 -63
17:58:11.444677 426.67 1484 2256 14116 849 374 -1
17:58:11.459794 426.68 1448 2264 14100 529 377 -2
17:58:11.477208 426.69 1712 2256 14076 892 319 -50
17:58:11.477926 426.7 1408 2244 14200 882 145 -23
17:58:11.522574 426.71 1672 2308 14240 1114 267 -31
17:58:11.547137 426.72 1540 2424 14216 1222 250 -24
17:58:11.553137 426.73 1596 2488 14284 1091 271 -29
17:58:11.553345 426.74 1456 2424 14244 1055 219 -43
17:58:11.553788 426.75 1680 2428 14276 1051 240 -22
17:58:11.554191 426.76 1532 2484 14216 1081 328 -86
17:58:11.565551 426.77 1536 2436 14156 1135 402 -99
17:58:11.594395 426.78 1544 2472 14308 1148 357 -96
17:58:11.595295 426.79 1496 2456 14260 1104 392 -66
17:58:11.595775 426.8 1584 2568 14208 917 375 -72
17:58:11.599388 426.81 1468 2464 14084 859 303 -69
17:58:11.616231 426.82 1572 2540 14172 945 279 -24
17:58:11.620663 426.83 1504 2576 14028 1035 305 -58
17:58:11.667357 426.84 1584 2696 14040 941 300 -26
17:58:11.669780 426.85 1540 2516 13956 875 298 -18
17:58:11.670899 426.86 1476 2724 14040 1137 332 -53
17:58:11.671885 426.87 1536 2664 14132 1192 305 -82
17:58:11.673134 426.88 1536 2696 14120 1178 376 -78
17:58:11.689803 426.89 1416 2860 14196 1112 372 -56
17:58:11.706785 426.9 1472 2884 14068 1027 393 -63
17:58:11.706945 426.91 1552 2872 14184 927 340 -42
17:58:11.707033 426.92 1544 2840 14184 908 416 -84
17:58:11.757825 426.93 1476 2900 14160 904 394 -68
17:58:11.769109 426.94 1488 2968 13964 945 323 -77
17:58:11.769392 426.95 1416 2940 14084 930 352 -71
17:58:11.769688 426.96 1392 3040 14032 963 342 -63
17:58:11.769941 426.97 1416 2888 14192 1067 339 -76
17:58:11.770211 426.98 1452 2984 14080 1053 325 -85
17:58:11.780174 426.99 1532 3084 14052 1023 286 -91
17:58:11.782370 427.0 1416 3104 14132 1082 300 -73
17:58:11.801589 427.01 1444 3136 14064 1011 294 -85
17:58:11.832440 427.02 1620 3156 14140 1018 339 -69
17:58:11.843982 427.03 1340 3112 14068 992 383 -109
17:58:11.844132 427.04 1524 3216 14012 969 373 -115
17:58:11.844414 427.05 1440 3172 14092 1027 398 -111
17:58:11.844711 427.06 1384 3208 14084 948 384 -115
17:58:11.861734 427.07 1484 3228 14012 909 381 -132
17:58:11.880459 427.08 1392 3316 14120 914 345 -108
17:58:11.900400 427.09 1452 3200 13968 893 360 -131
17:58:11.900924 427.1 1412 3304 13932 937 316 -92
17:58:11.901168 427.11 1364 3328 13996 813 319 -116
17:58:11.901376 427.12 1400 3340 13964 792 313 -107
17:58:11.942381 427.13 1472 3360 14028 866 306 -88
17:58:11.955886 427.14 1372 3328 13972 780 223 -107
17:58:11.955999 427.15 1508 3408 13972 828 269 -106
17:58:11.956079 427.16 1404 3444 13888 790 286 -97
17:58:11.956156 427.17 1420 3440 13960 823 249 -84
17:58:11.977192 427.18 1432 3468 14188 818 300 -88
17:58:11.987788 427.19 1384 3496 14044 789 324 -86
17:58:11.996679 427.2 1336 3532 14028 832 272 -81
17:58:11.998139 427.21 1444 3636 14044 781 339 -91
17:58:12.010603 427.22 1364 3596 13952 625 344 -88
17:58:12.048468 427.23 1332 3580 13872 526 258 -85
17:58:12.055696 427.24 1388 3532 13884 517 228 -100
17:58:12.055880 427.25 1428 3556 13944 704 339 -119
17:58:12.056732 427.26 1444 3600 14036 924 445 -141
17:58:12.059230 427.27 1388 3704 14096 909 420 -125
17:58:12.109134 427.28 1232 3700 14000 709 373 -103
17:58:12.123741 427.29 1344 3612 13816 493 314 -77
17:58:12.123845 427.3 1376 3636 13884 525 181 -71
17:58:12.123913 427.31 1348 3680 13980 530 169 -40
17:58:12.123977 427.32 1344 3744 13504 -136 309 41
17:58:12.131848 427.33 1500 3604 13676 -387 51 61
17:58:12.134476 427.34 1544 3620 14408 923 457 -130
17:58:12.162382 427.35 1316 4056 14188 1071 262 -130
17:58:12.162553 427.36 1244 3860 13820 97 46 -40
17:58:12.167677 427.37 1388 3800 13996 372 421 -72
17:58:12.189823 427.38 1228 3808 13624 -120 159 45
17:58:12.189960 427.39 1216 3560 13292 -544 -15 111
17:58:12.190069 427.4 1432 3516 13688 239 95 43
17:58:12.214409 427.41 1488 3740 14152 599 -15 -34
17:58:12.222962 427.42 1388 3892 14384 716 -75 -11
17:58:12.229113 427.43 1260 3972 14008 555 -1 -30
17:58:12.231166 427.44 1292 4044 13956 300 92 -27
17:58:12.251596 427.45 1260 3820 14148 326 174 -34
17:58:12.260051 427.46 1404 3988 14112 325 247 -41
17:58:12.264874 427.47 1464 3980 13932 336 363 -93
17:58:12.293361 427.48 1376 3932 13840 289 343 -98
17:58:12.294503 427.49 1432 3892 13752 228 290 -93
17:58:12.295562 427.5 1388 3888 13728 282 194 -64
17:58:12.311465 427.51 1548 3812 13876 434 264 -42
17:58:12.323209 427.52 1468 3928 13788 537 160 -31
17:58:12.324543 427.53 1456 3884 13868 494 244 -49
17:58:12.332142 427.54 1392 3852 14024 411 228 -42
17:58:12.349403 427.55 1308 3908 13996 339 291 -52
17:58:12.356387 427.56 1388 3992 13976 248 322 -61
17:58:12.382966 427.57 1464 3948 13804 202 317 -28
17:58:12.393281 427.58 1396 4000 13992 205 304 -22
17:58:12.413357 427.59 1308 3944 13824 108 277 -11
17:58:12.425835 427.6 1284 3996 13896 101 257 -52
17:58:12.426115 427.61 1404 3976 13892 113 296 -40
17:58:12.435582 427.62 1396 4060 13864 141 301 -42
17:58:12.436290 427.63 1352 4008 13916 159 243 -32
17:58:12.437715 427.64 1316 4040 13820 184 272 -58
17:58:12.457646 427.65 1288 4040 13808 255 321 -37
17:58:12.469561 427.66 1384 4072 13836 329 316 -61
17:58:12.490419 427.67 1344 3972 13748 299 285 -62
17:58:12.492114 427.68 1436 4036 14244 482 537 -104
17:58:12.494578 427.69 1252 4164 13820 183 446 -81
17:58:12.517324 427.7 1320 3972 13596 -384 241 13
17:58:12.525452 427.71 1340 4000 13876 64 392 -59
17:58:12.557384 427.72 1272 4092 14068 497 364 -122
17:58:12.558620 427.73 1348 4104 13892 294 277 -76
17:58:12.559600 427.74 1368 4124 13916 126 303 -49
17:58:12.563096 427.75 1216 4096 13744 -42 196 -17
17:58:12.565925 427.76 1376 4220 13876 50 134 1
17:58:12.588663 427.77 1368 4180 13900 110 113 -12
17:58:12.646735 427.78 1532 4100 13920 85 202 -23
17:58:12.657337 427.79 1348 4192 13780 54 210 -41
17:58:12.657445 427.8 1360 4220 13944 98 200 -37
17:58:12.657515 427.81 1392 4176 13828 96 226 -23
17:58:12.657582 427.82 1320 4124 13872 25 230 -30
17:58:12.657649 427.83 1336 4120 13816 3 226 -26
17:58:12.657714 427.84 1372 3932 13820 24 252 -62
17:58:12.657778 427.85 1380 4164 13864 87 288 -60
17:58:12.670760 427.86 1304 4188 13732 19 240 -14
17:58:12.691206 427.87 1352 4072 13760 -81 251 -62
17:58:12.691374 427.88 1204 4040 13900 -47 265 -51
17:58:12.719506 427.89 1296 4156 14004 -48 315 -39
17:58:12.781634 427.9 1324 4120 13868 -110 302 -54
17:58:12.790916 427.91 1264 4104 13900 -104 279 -31
17:58:12.791050 427.92 1264 4120 13920 -187 313 -36
17:58:12.791146 427.93 1316 4100 13776 -236 290 -19
17:58:12.791238 427.94 1280 4136 13864 -292 275 -14
17:58:12.791331 427.95 1244 4176 13760 -312 294 -22
17:58:12.836571 427.96 1300 4132 13868 -319 262 -2
17:58:12.851316 427.97 1252 4232 13684 -366 259 -7
17:58:12.861637 427.98 1248 4164 13912 -410 262 -11
17:58:12.861959 427.99 1328 4164 13808 -411 285 -25
17:58:12.888451 428.0 1288 4212 13924 -465 270 1
17:58:12.963973 428.01 1176 4120 13896 -535 258 -20
17:58:12.981628 428.02 1220 4116 13860 -554 251 8
17:58:12.993694 428.03 1236 4052 13748 -643 207 13
17:58:12.993961 428.04 1292 4096 13976 -646 176 30
17:58:12.994274 428.05 1356 4016 13780 -624 178 17
17:58:12.994571 428.06 1212 4068 13888 -590 236 3
17:58:12.994949 428.07 1332 4096 13860 -572 261 23
17:58:12.995217 428.08 1388 4084 13952 -586 253 -3
17:58:12.995512 428.09 1248 4076 13924 -662 299 -28
17:58:12.995808 428.1 1304 4124 13944 -744 302 -20
17:58:12.996104 428.11 1276 3932 14044 -1034 119 66
17:58:12.998390 428.12 1268 3948 13864 -1137 170 89
17:58:13.000687 428.13 1256 3884 13908 -1217 228 58
17:58:13.002411 428.14 1328 3860 13896 -1284 151 79
17:58:13.028760 428.15 1276 3820 13980 -1303 140 60
17:58:13.030789 428.16 1380 3836 14116 -1371 122 88
17:58:13.031040 428.17 1308 3736 13880 -1406 144 121
17:58:13.048155 428.18 1320 3688 13908 -1348 183 110
17:58:13.062404 428.19 1324 3828 13952 -1453 208 92
17:58:13.090499 428.2 1324 3740 14024 -1525 204 123
17:58:13.098346 428.21 1332 3816 13884 -1526 209 116
17:58:13.098535 428.22 1388 3648 13968 -1611 177 95
17:58:13.098801 428.23 1376 3664 13840 -1698 139 97
17:58:13.106730 428.24 1336 3404 13808 -1705 61 168
17:58:13.127873 428.25 1308 3440 13916 -1770 3 166
17:58:13.128146 428.26 1328 3344 14016 -1613 83 149
17:58:13.150566 428.27 1380 3384 13996 -1291 225 113
17:58:13.161468 428.28 1272 3336 14128 -1038 295 87
17:58:13.170505 428.29 1388 3412 14132 -1180 242 83
17:58:13.171544 428.3 1276 3432 14060 -1390 198 80
17:58:13.172568 428.31 1280 3352 13920 -1577 38 124
17:58:13.214654 428.32 1344 3308 13908 -1556 -61 138
17:58:13.229813 428.33 1344 3308 14124 -1425 -7 158
17:58:13.230069 428.34 1288 3288 14252 -1577 198 190
17:58:13.230253 428.35 1312 3324 13576 -2419 49 219
17:58:13.230428 428.36 1592 3084 14104 -2037 17 112
17:58:13.230602 428.37 1420 3196 14508 -783 287 -3
17:58:13.240267 428.38 1224 3252 13728 -1746 -284 165
17:58:13.264291 428.39 1420 2976 14252 -1766 44 104
17:58:13.265801 428.4 1252 3084 13788 -1520 90 160
17:58:13.287016 428.41 1452 2912 13612 -2307 -320 269
17:58:13.299272 428.42 1396 2652 13860 -1676 -72 165
17:58:13.301639 428.43 1604 2964 14272 -721 -2 59
17:58:13.303561 428.44 1480 2964 14440 -767 6 50
17:58:13.324440 428.45 1356 3056 14264 -1190 59 74
17:58:13.332147 428.46 1356 3128 14188 -1471 152 105
17:58:13.337197 428.47 1352 2976 14188 -1579 161 105
17:58:13.365057 428.48 1384 2908 14288 -1548 145 90
17:58:13.366283 428.49 1392 2936 14012 -1635 151 110
17:58:13.367489 428.5 1420 2848 13992 -1821 194 117
17:58:13.384204 428.51 1404 2680 13860 -1800 142 84
17:58:13.397058 428.52 1384 2616 13880 -1648 49 100
17:58:13.397166 428.53 1492 2524 14012 -1360 -27 65
17:58:13.404777 428.54 1464 2688 14088 -853 62 30
17:58:13.421855 428.55 1432 2564 14308 -761 107 9
17:58:13.434293 428.56 1388 2648 14312 -816 127 -9
17:58:13.450169 428.57 1428 2596 14300 -935 209 4
17:58:13.464674 428.58 1444 2544 14212 -1001 155 24
17:58:13.466474 428.59 1400 2608 14204 -1106 152 33
17:58:13.468194 428.6 1452 2472 14180 -1304 133 18
17:58:13.487467 428.61 1432 2544 14144 -1278 45 28
17:58:13.496604 428.62 1488 2392 14020 -1330 74 45
17:58:13.504154 428.63 1512 2420 14080 -1352 44 31
17:58:13.505865 428.64 1500 2392 14216 -1229 88 11
17:58:13.522336 428.65 1496 2492 14232 -1166 128 -22
17:58:13.530780 428.66 1344 2404 14092 -1127 198 8
17:58:13.539900 428.67 1368 2380 14260 -1042 230 -28
17:58:13.551782 428.68 1356 2356 14328 -886 213 -14
17:58:13.565422 428.69 1428 2404 14144 -870 123 -28
17:58:13.586180 428.7 1492 2316 14292 -676 361 -28
17:58:13.597193 428.71 1376 2400 14116 -693 281 4
17:58:13.597357 428.72 1388 2348 14004 -1146 96 18
17:58:13.599509 428.73 1464 2140 14000 -1292 30 18
17:58:13.607239 428.74 1556 2148 14372 -789 13 -8
17:58:13.619098 428.75 1440 2228 14312 -593 96 -49
17:58:13.639938 428.76 1472 2328 14228 -799 94 -40
17:58:13.641581 428.77 1520 2160 14156 -929 117 -43
17:58:13.658302 428.78 1356 2268 14340 -951 72 -2
17:58:13.667949 428.79 1484 2160 14204 -1003 17 -12
17:58:13.668083 428.8 1476 2248 14340 -1030 77 -43
17:58:13.674989 428.81 1556 2044 14356 -1011 148 -47
17:58:13.696807 428.82 1560 2244 14208 -1060 157 -71
17:58:13.696970 428.83 1580 2060 14168 -1023 117 -89
17:58:13.704328 428.84 1452 1968 14184 -995 135 -61
17:58:13.719594 428.85 1412 2112 14048 -1035 182 -65
17:58:13.736753 428.86 1516 1868 14156 -1026 141 -29
17:58:13.739141 428.87 1500 1912 14052 -881 146 -19
17:58:13.742142 428.88 1524 1796 14260 -707 159 -37
17:58:13.757510 428.89 1512 1940 14248 -741 104 -47
17:58:13.765296 428.9 1480 1904 14132 -741 68 -2
17:58:13.787374 428.91 1396 1904 14224 -545 93 3
17:58:13.804239 428.92 1448 1984 14224 -398 126 0
17:58:13.805896 428.93 1468 1936 14220 -396 157 -15
17:58:13.824936 428.94 1448 1960 14008 -427 118 -5
17:58:13.835037 428.95 1596 1932 14244 -411 169 36
17:58:13.835989 428.96 1516 1836 14332 -258 174 25
17:58:13.839806 428.97 1692 1904 14276 -128 193 6
17:58:13.855583 428.98 1452 1860 14180 -25 170 43
17:58:13.864453 428.99 1512 1900 14204 118 177 30
17:58:13.885114 429.0 1496 1956 14204 272 185 1
17:58:13.900079 429.01 1496 1896 14236 350 267 26
17:58:13.900377 429.02 1468 1880 14240 409 287 8
17:58:13.918823 429.03 1420 1904 14080 500 302 -3
17:58:13.933471 429.04 1488 1916 14200 541 317 -8
17:58:13.933737 429.05 1540 1924 14104 636 312 -21
17:58:13.937576 429.06 1492 2008 14212 666 366 -39
17:58:13.954235 429.07 1572 2004 14232 707 350 -60
17:58:13.964832 429.08 1420 2044 14328 788 301 -34
17:58:13.967107 429.09 1556 2144 14328 721 318 -20
17:58:13.974786 429.1 1496 2024 14264 742 269 -29
17:58:13.990484 429.11 1524 2188 14308 738 295 -2
17:58:13.998535 429.12 1444 2108 14264 762 327 -41
17:58:14.019450 429.13 1480 2184 14220 726 322 -37
17:58:14.036817 429.14 1520 2188 14200 676 336 -7
17:58:14.038342 429.15 1480 2264 14220 646 269 -49
17:58:14.042310 429.16 1536 2172 14044 690 279 -39
17:58:14.054135 429.17 1480 2256 14176 820 278 -36
17:58:14.074220 429.18 1416 2244 14140 880 275 -65
17:58:14.076299 429.19 1516 2184 14212 888 276 2
17:58:14.088596 429.2 1376 2216 14204 954 279 -11
17:58:14.098891 429.21 1464 2316 14312 1109 298 -40
17:58:14.104070 429.22 1656 2376 14300 1232 320 -21
17:58:14.109894 429.23 1420 2412 14196 1217 366 -5
17:58:14.134417 429.24 1492 2376 14108 1247 371 -46
17:58:14.142400 429.25 1464 2416 14084 1247 409 -69
17:58:14.157449 429.26 1408 2540 14360 1246 444 -45
17:58:14.165719 429.27 1400 2484 14144 1085 440 -48
17:58:14.166130 429.28 1444 2544 14176 931 376 -57
17:58:14.169622 429.29 1396 2496 14024 872 328 -51
17:58:14.186304 429.3 1356 2568 13972 793 223 -37
17:58:14.192369 429.31 1472 2560 14040 954 256 -10
17:58:14.206922 429.32 1356 2628 14208 1193 357 -38
17:58:14.215244 429.33 1480 2660 14316 1440 479 -66
17:58:14.246531 429.34 1460 2788 14224 1343 519 -103
17:58:14.257945 429.35 1464 2792 14088 1078 478 -71
17:58:14.258133 429.36 1388 2620 13944 878 384 -53
17:58:14.258459 429.37 1520 2696 13996 991 344 -45
17:58:14.273370 429.38 1324 2728 14296 1145 372 -80
17:58:14.285566 429.39 1320 2896 14020 488 543 -11
17:58:14.289735 429.4 1404 2896 13520 -49 158 14
17:58:14.305448 429.41 1664 2652 14432 960 420 -119
17:58:14.314255 429.42 1484 3016 14128 1956 343 -155
17:58:14.342981 429.43 1320 2960 13852 860 -3 -31
17:58:14.343273 429.44 1496 2896 14428 1128 460 -117
17:58:14.356010 429.45 1188 3000 13880 812 309 -14
17:58:14.364318 429.46 1200 2876 13504 -265 -74 138
17:58:14.364424 429.47 1480 2724 13968 661 199 29
17:58:14.375606 429.48 1336 2948 14268 1369 73 -31
17:58:14.389596 429.49 1388 3152 14464 1537 97 -87
17:58:14.391786 429.5 1292 3212 14396 1227 191 -69
17:58:14.436637 429.51 1356 3140 14104 1150 276 -64
17:58:14.452799 429.52 1200 3284 14400 1071 291 -86
17:58:14.453178 429.53 1324 3172 14172 921 314 -61
17:58:14.453423 429.54 1460 3312 14116 846 395 -76
17:58:14.453644 429.55 1344 3156 14048 736 405 -82
17:58:14.453864 429.56 1436 3104 13808 729 307 -104
17:58:14.471803 429.57 1368 3200 13744 1036 218 -94
17:58:14.487682 429.58 1384 3208 13928 1155 203 -86
17:58:14.488009 429.59 1468 3264 14072 1347 161 -121
17:58:14.491765 429.6 1500 3340 14276 1266 197 -103
17:58:14.507822 429.61 1420 3372 14180 1112 305 -83
17:58:14.523292 429.62 1328 3324 14096 990 298 -94
17:58:14.529605 429.63 1356 3388 13948 887 317 -77
17:58:14.549331 429.64 1320 3452 14064 784 250 -95
17:58:14.561889 429.65 1544 3416 13912 707 289 -54
17:58:14.562344 429.66 1412 3504 13976 637 250 -74
17:58:14.574414 429.67 1280 3552 13928 618 228 -72
17:58:14.592501 429.68 1296 3404 13984 610 265 -75
17:58:14.610847 429.69 1376 3572 13952 651 258 -74
17:58:14.611452 429.7 1416 3484 14012 660 265 -85
17:58:14.611850 429.71 1260 3604 14092 759 285 -66
17:58:14.629385 429.72 1228 3696 14012 867 302 -76
17:58:14.633746 429.73 1336 3636 14104 857 253 -111
17:58:14.641862 429.74 1360 3632 14148 1046 389 -119
17:58:14.664489 429.75 1292 3764 13880 762 498 -95
17:58:14.664967 429.76 1356 3624 13932 325 395 -53
17:58:14.702733 429.77 1336 3616 13712 335 266 -86
17:58:14.712195 429.78 1384 3640 13988 744 310 -84
17:58:14.712462 429.79 1352 3748 13976 943 240 -92
17:58:14.712633 429.8 1436 3696 14000 624 235 -77
17:58:14.713033 429.81 1328 3784 13892 460 193 -26
17:58:14.725190 429.82 1340 3804 13884 530 106 -17
17:58:14.750234 429.83 1356 3776 13916 457 189 -57
17:58:14.761534 429.84 1400 3768 13896 475 206 -58
17:58:14.762087 429.85 1348 3780 13844 514 189 -43
17:58:14.801508 429.86 1316 3980 14048 545 226 -81
17:58:14.811075 429.87 1324 3904 14132 508 265 -67
17:58:14.811563 429.88 1400 3868 13944 339 280 -54
17:58:14.811994 429.89 1364 3828 13872 384 283 -69
17:58:14.812382 429.9 1312 3880 13872 414 282 -43
17:58:14.826717 429.91 1308 3812 13920 418 277 -61
17:58:14.837346 429.92 1252 3848 13932 307 283 -25
17:58:14.849557 429.93 1216 3872 13900 341 241 -56
17:58:14.862158 429.94 1200 3872 13996 473 274 -70
17:58:14.863997 429.95 1284 3952 13952 491 320 -64
17:58:14.912095 429.96 1240 3984 13780 422 318 -56
17:58:14.919436 429.97 1264 3936 13876 309 246 -47
17:58:14.919622 429.98 1172 3932 13968 283 295 -54
17:58:14.919796 429.99 1308 3920 14036 268 297 -34
17:58:14.920064 430.0 1324 4048 13716 239 314 -40
17:58:14.926881 430.01 1292 3992 13964 296 315 -60
17:58:14.944756 430.02 1232 3976 13788 269 286 -67
17:58:14.962007 430.03 1236 3996 13784 231 262 -28
17:58:14.966637 430.04 1164 4016 13876 252 287 -21
17:58:14.989101 430.05 1316 4032 13992 280 293 -53
17:58:15.059111 430.06 1292 4060 14000 175 308 -45
17:58:15.069180 430.07 1228 4040 13764 183 279 -36
17:58:15.069384 430.08 1300 4052 13820 157 288 -44
17:58:15.069668 430.09 1268 3944 13960 138 289 -36
17:58:15.069852 430.1 1316 3968 13784 210 271 -45
17:58:15.070025 430.11 1224 4068 13824 162 303 -53
17:58:15.070209 430.12 1124 4168 13864 144 320 -87
17:58:15.070900 430.13 1388 4072 13784 13 478 -66
17:58:15.071983 430.14 1304 4012 13832 -33 524 -91
17:58:15.076727 430.15 1228 4008 13912 45 468 -93
17:58:15.127808 430.16 1180 4084 13908 141 366 -87
17:58:15.144658 430.17 1340 4204 14032 107 245 -62
17:58:15.144794 430.18 1324 4160 13952 22 263 -65
17:58:15.144905 430.19 1268 4144 13916 -42 288 -35
17:58:15.144998 430.2 1116 4100 13828 -17 308 -32
17:58:15.145136 430.21 1208 4048 13872 -30 280 -26
17:58:15.145571 430.22 1172 4132 13820 -16 258 -24
17:58:15.161570 430.23 1268 4160 13756 39 212 -40
17:58:15.180111 430.24 1160 4244 13820 42 216 -42
17:58:15.185470 430.25 1240 4132 13844 -22 199 -18
17:58:15.186051 430.26 1160 4112 13908 -143 207 -1
17:58:15.203797 430.27 1192 4116 13924 -139 234 4
17:58:15.229725 430.28 1324 4132 13824 -122 236 -29
17:58:15.237699 430.29 1152 4184 13932 -153 245 -25
17:58:15.237856 430.3 1280 4124 13872 -185 263 -9
17:58:15.245364 430.31 1172 4112 13744 -197 251 -16
17:58:15.271728 430.32 1324 4188 13836 -254 201 -10
17:58:15.272145 430.33 1196 4272 13836 -286 245 -10
17:58:15.286232 430.34 1216 4084 13828 -309 269 -25
17:58:15.301077 430.35 1064 4120 13744 -382 251 4
17:58:15.302053 430.36 1188 4216 13968 -455 239 1
17:58:15.303142 430.37 1192 4184 14020 -449 239 -16
17:58:15.348117 430.38 1196 4192 13884 -513 268 13
17:58:15.349410 430.39 1180 4104 13992 -597 266 -22
17:58:15.349752 430.4 1244 4140 13936 -628 266 -19
17:58:15.352596 430.41 1192 4132 13928 -790 272 -31
17:58:15.369385 430.42 1260 4088 13924 -1002 271 14
17:58:15.382849 430.43 1168 4032 13980 -1148 257 15
17:58:15.383866 430.44 1208 4016 13868 -1326 202 51
17:58:15.405256 430.45 1156 3940 14056 -1219 198 61
17:58:15.405417 430.46 1248 3940 14040 -1019 321 37
17:58:15.405537 430.47 1184 4020 14044 -1067 269 17
17:58:15.417453 430.48 1216 3912 14012 -1301 206 33
17:58:15.437083 430.49 1072 3928 13972 -1571 195 66
17:58:15.466210 430.5 1116 3808 13876 -1686 11 110
17:58:15.472876 430.51 1104 3756 14020 -1569 -39 130
17:58:15.473225 430.52 1152 3788 14204 -1627 92 177
17:58:15.475361 430.53 1172 3732 13424 -2324 127 222
17:58:15.482949 430.54 1416 3512 13872 -2100 -20 179
17:58:15.499913 430.55 1280 3744 14456 -759 318 53
17:58:15.508952 430.56 1204 3680 13860 -1677 -264 181
17:58:15.512992 430.57 1340 3656 14076 -1826 91 136
17:58:15.535256 430.58 1160 3496 13852 -1650 122 144
17:58:15.565205 430.59 1136 3452 13532 -2366 -302 297
17:58:15.575148 430.6 1228 3204 13712 -2038 -137 243
17:58:15.575320 430.61 1352 3280 14252 -935 -169 148
17:58:15.575495 430.62 1408 3492 14336 -885 -101 129
17:58:15.582224 430.63 1244 3476 14368 -1123 -54 111
17:58:15.584480 430.64 1216 3568 14276 -1344 -11 129
17:58:15.596252 430.65 1144 3600 14164 -1558 51 179
17:58:15.626407 430.66 1320 3476 14084 -1711 96 134
17:58:15.646476 430.67 1280 3472 14100 -1666 152 120
17:58:15.646581 430.68 1264 3224 13920 -1739 183 146
17:58:15.646643 430.69 1192 3264 13952 -1772 59 175
17:58:15.646703 430.7 1268 3172 13692 -1764 5 133
17:58:15.706129 430.71 1404 3060 13988 -1461 4 125
17:58:15.707685 430.72 1356 3008 14208 -1088 66 82
17:58:15.707790 430.73 1356 3060 14212 -1096 96 98
17:58:15.708617 430.74 1396 3116 14240 -1171 109 86
17:58:15.709725 430.75 1376 3056 14204 -1271 123 87
17:58:15.737544 430.76 1428 3036 14104 -1356 134 46
17:58:15.741515 430.77 1228 3088 14168 -1393 127 72
17:58:15.741643 430.78 1332 3024 14132 -1381 118 99
17:58:15.742226 430.79 1316 2936 13944 -1424 84 82
17:58:15.753004 430.8 1352 2892 14228 -1460 84 69
17:58:15.812431 430.81 1460 2876 14060 -1363 28 63
17:58:15.861861 430.82 1440 2848 14020 -1386 136 58
17:58:15.873586 430.83 1228 2824 14176 -1418 147 66
17:58:15.873807 430.84 1400 2884 14108 -1291 135 54
17:58:15.873957 430.85 1364 2800 14040 -1136 153 53
17:58:15.874093 430.86 1320 2956 14076 -1001 244 36
17:58:15.962126 430.87 1276 2816 14104 -913 210 -5
17:58:15.978741 430.88 1272 2816 14164 -974 163 -23
17:58:15.978860 430.89 1188 2748 14208 -853 456 -32
17:58:15.978931 430.9 1312 2792 13988 -1288 229 32
17:58:15.978998 430.91 1280 2536 13900 -1783 -42 102
17:58:15.979064 430.92 1412 2536 14324 -810 26 -23
17:58:15.996802 430.93 1332 2680 14288 -710 18 -11
17:58:16.013523 430.94 1416 2736 14120 -967 107 6
17:58:16.013950 430.95 1356 2604 14184 -1143 142 -3
17:58:16.014460 430.96 1336 2596 14108 -1184 41 22
17:58:16.014938 430.97 1360 2380 14212 -1210 106 10
17:58:16.015128 430.98 1360 2432 14268 -1336 160 -8
17:58:16.015223 430.99 1356 2340 14200 -1381 164 -28
17:58:16.015318 431.0 1436 2368 14060 -1240 83 -28
17:58:16.016815 431.01 1388 2340 14276 -1213 65 -33
17:58:16.018878 431.02 1436 2384 14232 -1174 85 -47
17:58:16.022278 431.03 1284 2260 14372 -1266 154 -28
17:58:16.043505 431.04 1400 2192 14200 -1278 121 -34
17:58:16.067420 431.05 1408 2192 14284 -1246 121 -39
17:58:16.077244 431.06 1380 2204 14236 -1206 143 -82
17:58:16.077427 431.07 1376 2200 14128 -1300 91 -42
17:58:16.077573 431.08 1400 2212 14080 -1368 51 -30
17:58:16.082787 431.09 1464 2160 14104 -1479 56 -25
17:58:16.102482 431.1 1444 2124 14276 -1413 128 -29
17:58:16.132932 431.11 1420 2068 14204 -1353 142 -44
17:58:16.144055 431.12 1360 2148 14160 -1275 87 -30
17:58:16.144272 431.13 1504 2092 14156 -1240 116 -6
17:58:16.144518 431.14 1416 1988 14136 -1197 107 -22
17:58:16.163418 431.15 1448 1920 14204 -1068 81 -26
17:58:16.175922 431.16 1452 2068 14252 -1091 133 -17
17:58:16.185090 431.17 1464 1932 14220 -1093 77 -15
17:58:16.187081 431.18 1332 1960 14296 -1157 115 -27
17:58:16.214495 431.19 1436 1992 14212 -1208 94 -36
17:58:16.214713 431.2 1404 1928 14232 -1183 82 -38
17:58:16.214926 431.21 1440 1900 14248 -1153 110 -52
17:58:16.216956 431.22 1424 1840 14492 -1040 114 -58
17:58:16.234674 431.23 1560 1744 14228 -1069 116 -37
17:58:16.243606 431.24 1424 1736 14256 -1089 80 -44
17:58:16.269209 431.25 1492 1744 14132 -1057 49 -21
17:58:16.278052 431.26 1492 1632 14220 -986 2 -37
17:58:16.278316 431.27 1536 1756 14300 -780 59 -38
17:58:16.278475 431.28 1492 1676 14276 -692 80 -37
17:58:16.304224 431.29 1460 1688 14280 -622 74 -44
17:58:16.320636 431.3 1528 1560 14188 -467 71 -21
17:58:16.323905 431.31 1384 1656 14148 -371 95 -15
17:58:16.346281 431.32 1420 1640 14244 -191 95 10
17:58:16.346437 431.33 1476 1592 14140 -93 132 25
17:58:16.346555 431.34 1520 1596 14124 44 201 12
17:58:16.352151 431.35 1572 1608 14204 204 259 -3
17:58:16.366870 431.36 1432 1668 14004 310 304 6
17:58:16.378194 431.37 1420 1652 14108 434 333 -2
17:58:16.378375 431.38 1460 1772 14172 463 282 5
17:58:16.402745 431.39 1468 1788 14288 605 276 3
17:58:16.410955 431.4 1596 1724 14332 735 292 36
17:58:16.412256 431.41 1468 1796 14376 839 310 37
17:58:16.419741 431.42 1468 1824 14364 879 328 14
17:58:16.434964 431.43 1344 1812 14208 901 382 -1
17:58:16.451534 431.44 1428 1836 14384 926 343 4
17:58:16.452770 431.45 1416 1864 14268 829 328 -26
17:58:16.464570 431.46 1428 1936 14164 755 337 16
17:58:16.481934 431.47 1480 1944 14112 564 200 26
17:58:16.487034 431.48 1452 1860 14092 791 245 27
17:58:16.498068 431.49 1436 1920 14396 1306 383 -41
17:58:16.513528 431.5 1412 2076 14340 1282 402 -43
17:58:16.537807 431.51 1332 2072 14208 1079 370 -77
17:58:16.547901 431.52 1348 2068 14140 996 233 -17
17:58:16.548132 431.53 1316 2048 13976 1099 153 54
17:58:16.548317 431.54 1460 1944 14300 1407 304 2
17:58:16.571893 431.55 1460 2116 14588 1435 497 -7
17:58:16.577793 431.56 1436 2364 13816 583 536 8
17:58:16.586616 431.57 1536 1972 14288 357 221 54
17:58:16.587750 431.58 1616 2112 14720 1938 481 -95
17:58:16.635481 431.59 1384 2412 14004 1584 159 -52
17:58:16.647035 431.6 1436 2232 14036 687 124 -8
17:58:16.647251 431.61 1480 2140 14560 1443 596 -100
17:58:16.647420 431.62 1236 2428 13760 771 174 35
17:58:16.654282 431.63 1540 2148 13636 -35 40 123
17:58:16.656458 431.64 1540 2060 14204 1105 275 19
17:58:16.700976 431.65 1376 2368 14416 1826 281 -11
17:58:16.713398 431.66 1404 2532 14580 1696 336 -18
17:58:16.719835 431.67 1320 2552 14256 1427 331 8
17:58:16.722216 431.68 1368 2544 14320 1348 440 -8
17:58:16.722977 431.69 1436 2664 14136 1227 423 40
17:58:16.725466 431.7 1312 2584 14320 1043 433 37
17:58:16.746244 431.71 1424 2544 14248 951 426 -21
17:58:16.746405 431.72 1344 2616 13856 958 467 -27
17:58:16.751490 431.73 1328 2608 13872 992 445 -19
17:58:16.753376 431.74 1364 2604 13952 1184 413 -43
17:58:16.775017 431.75 1404 2580 14080 1425 369 -65
17:58:16.784657 431.76 1496 2648 14348 1536 338 -78
17:58:16.786750 431.77 1356 2724 14292 1419 348 -68
17:58:16.801646 431.78 1256 2748 14396 1288 370 -80
17:58:16.815243 431.79 1260 2884 14128 1139 337 -84
17:58:16.837848 431.8 1212 2852 14088 916 292 -42
17:58:16.847697 431.81 1376 2860 14164 806 316 -40
17:58:16.848097 431.82 1236 2768 14316 809 201 -30
17:58:16.848287 431.83 1356 2908 14124 735 185 -35
17:58:16.854664 431.84 1324 2880 14112 709 247 -48
17:58:16.875343 431.85 1436 2916 14048 806 245 -63
17:58:16.886903 431.86 1288 3000 13932 859 307 -45
17:58:16.907045 431.87 1320 3000 14124 1000 290 -74
17:58:16.918199 431.88 1360 2972 14072 1119 330 -83
17:58:16.918368 431.89 1368 3028 14232 1294 422 -91
17:58:16.943254 431.9 1432 3064 14076 1317 245 -107
17:58:16.954588 431.91 1132 3156 14472 1431 606 -121
17:58:16.954771 431.92 1112 3256 13924 980 380 -21
17:58:16.955092 431.93 1248 3268 13908 694 302 -34
17:58:16.955428 431.94 1368 3132 14064 893 312 -55
17:58:16.972568 431.95 1368 3168 14020 945 163 -61
17:58:16.985139 431.96 1292 3268 14136 1106 234 -101
17:58:16.989455 431.97 1380 3292 14192 1023 269 -90
17:58:17.007405 431.98 1364 3284 13992 719 247 -64
17:58:17.017305 431.99 1292 3292 13964 706 151 -33
17:58:17.042742 432.0 1268 3336 13992 639 102 -19
17:58:17.051510 432.01 1356 3356 14180 610 170 -57
17:58:17.051643 432.02 1296 3316 14004 767 226 -72
17:58:17.070744 432.03 1336 3412 14052 916 240 -71
17:58:17.081622 432.04 1392 3420 14140 940 270 -108
17:58:17.081780 432.05 1316 3472 14180 869 280 -128
17:58:17.089380 432.06 1276 3420 13976 741 332 -99
17:58:17.090757 432.07 1412 3332 13908 726 319 -101
17:58:17.104749 432.08 1288 3348 14204 790 278 -98
17:58:17.119027 432.09 1364 3412 13992 745 286 -58
17:58:17.135504 432.1 1408 3432 13960 584 249 -103
17:58:17.148824 432.11 1336 3488 13884 693 261 -94
17:58:17.149119 432.12 1248 3480 13952 846 310 -87
17:58:17.150966 432.13 1296 3580 14036 817 312 -119
17:58:17.170683 432.14 1316 3584 13900 734 293 -86
17:58:17.186564 432.15 1248 3552 13936 596 291 -70
17:58:17.187781 432.16 1292 3648 14024 490 285 -71
17:58:17.207013 432.17 1288 3772 14000 449 279 -47
17:58:17.215165 432.18 1324 3696 13952 443 255 -43
17:58:17.215315 432.19 1288 3676 13860 469 229 -37
17:58:17.222086 432.2 1160 3684 13948 469 274 -49
17:58:17.246806 432.21 1288 3620 13924 507 255 -39
17:58:17.248229 432.22 1248 3808 14128 572 271 -53
17:58:17.260905 432.23 1256 3752 13944 571 291 -52
17:58:17.284075 432.24 1252 3796 14072 506 279 -71
17:58:17.284246 432.25 1244 3760 14104 477 282 -32
17:58:17.284334 432.26 1204 3764 13904 475 286 -50
17:58:17.306647 432.27 1264 3760 14084 499 284 -50
17:58:17.320214 432.28 1276 3752 13948 513 315 -72
17:58:17.320407 432.29 1256 3736 13892 479 337 -87
17:58:17.327442 432.3 1276 3824 13920 405 369 -66
17:58:17.352998 432.31 1312 3788 13856 383 354 -94
17:58:17.353256 432.32 1288 3804 13912 359 325 -98
17:58:17.373142 432.33 1188 3864 13880 300 297 -98
17:58:17.384455 432.34 1224 3836 13932 298 295 -28
17:58:17.389629 432.35 1172 3796 14048 315 306 -53
17:58:17.392376 432.36 1172 3828 13800 314 302 -64
17:58:17.411033 432.37 1156 3864 13892 321 286 -47
17:58:17.439636 432.38 1196 3912 13864 276 267 -60
17:58:17.453848 432.39 1224 3860 13876 243 297 -70
17:58:17.453996 432.4 1084 3876 13948 281 289 -65
17:58:17.506231 432.41 1216 3960 13832 278 291 -51
17:58:17.519662 432.42 1040 3920 13824 267 272 -40
17:58:17.519882 432.43 1180 3972 13792 259 270 -65
17:58:17.520027 432.44 1320 4020 14008 242 321 -53
17:58:17.520162 432.45 1188 3928 13984 215 297 -53
17:58:17.520294 432.46 1236 3976 13796 213 288 -33
17:58:17.520424 432.47 1252 3964 14020 207 282 -42
17:58:17.524777 432.48 1248 4064 13952 209 349 -45
17:58:17.527413 432.49 1384 4132 13844 238 316 -68
17:58:17.545476 432.5 1224 4092 14080 226 355 -22
17:58:17.575757 432.51 1184 3992 13872 178 319 -41
17:58:17.583199 432.52 1280 3956 13656 69 292 -40
17:58:17.583394 432.53 1188 3928 13788 -27 234 -2
17:58:17.583645 432.54 1264 4056 13900 -74 198 -19
17:58:17.584008 432.55 1248 3996 13872 60 314 -43
17:58:17.607200 432.56 1284 4032 14044 294 397 -87
17:58:17.619530 432.57 1064 4092 14016 243 370 -86
17:58:17.621552 432.58 1148 3940 13948 72 343 -77
17:58:17.622601 432.59 1096 4076 13836 -153 266 -58
17:58:17.627995 432.6 1144 4016 13768 -168 212 -37
17:58:17.655288 432.61 1104 4084 14072 -81 152 -20
17:58:17.656883 432.62 1108 4044 13996 -437 239 56
17:58:17.664930 432.63 1124 4008 13412 -1068 37 144
17:58:17.689396 432.64 1424 3916 14248 -172 295 -4
17:58:17.689535 432.65 1344 4148 14348 646 512 -172
17:58:17.708478 432.66 1184 4160 13872 -395 10 -22
17:58:17.721753 432.67 1144 3972 14004 -408 167 -19
17:58:17.721944 432.68 1140 4008 13868 -454 236 37
17:58:17.724287 432.69 1008 3824 13404 -1184 -34 119
17:58:17.742021 432.7 1212 3688 13476 -782 -34 128
17:58:17.752996 432.71 1288 3824 13776 -172 -32 78
17:58:17.755083 432.72 1252 3904 14112 12 -88 19
17:58:17.762296 432.73 1220 4044 14120 -12 -82 17
17:58:17.777242 432.74 1156 4116 13984 -254 11 61
17:58:17.793216 432.75 1260 4104 14040 -303 89 76
17:58:17.810799 432.76 1240 4060 14008 -409 74 65
17:58:17.827849 432.77 1328 4072 13936 -477 178 23
17:58:17.829660 432.78 1116 4052 13812 -393 190 17
17:58:17.853428 432.79 1280 3964 13896 -379 241 -4
17:58:17.853544 432.8 1224 3916 13644 -355 234 32
17:58:17.853615 432.81 1244 3912 13708 -260 193 36
17:58:17.860311 432.82 1204 3976 13932 -337 179 16
17:58:17.878082 432.83 1180 3940 13852 -430 204 22
17:58:17.921643 432.84 1180 3920 14084 -521 184 22
17:58:18.009167 432.85 1224 3896 13916 -656 182 39
17:58:18.010412 432.86 1184 3908 14004 -844 173 67
17:58:18.011602 432.87 1252 3884 13996 -922 200 66
17:58:18.012893 432.88 1204 3756 14008 -968 148 55
17:58:18.016634 432.89 1240 3884 14064 -983 131 84
17:58:18.037189 432.9 1344 3796 13876 -1102 156 85
17:58:18.037380 432.91 1284 3820 14044 -1157 212 82
17:58:18.037520 432.92 1140 3812 13844 -1081 157 56
17:58:18.037654 432.93 1216 3760 13780 -1052 149 89
17:58:18.037787 432.94 1236 3788 13968 -1016 185 84
17:58:18.037920 432.95 1172 3812 13864 -993 211 86
17:58:18.038114 432.96 1188 3812 13972 -932 209 29
17:58:18.038363 432.97 1180 3860 13908 -1097 156 38
17:58:18.041770 432.98 1284 3728 14216 -1004 371 14
17:58:18.044294 432.99 1136 3664 13980 -1245 413 90
17:58:18.060673 433.0 1148 3648 13712 -2099 23 168
17:58:18.070158 433.01 1176 3452 13844 -1526 137 91
17:58:18.079161 433.02 1308 3572 13848 -913 112 43
17:58:18.080836 433.03 1284 3420 13920 -1088 37 65
17:58:18.122563 433.04 1292 3536 13908 -1187 92 71
17:58:18.270106 433.05 1180 3488 14076 -1264 10 107
17:58:18.271275 433.06 1256 3472 14140 -1279 24 120
17:58:18.272526 433.07 1232 3376 14020 -1308 103 102
17:58:18.273647 433.08 1364 3488 14112 -1415 147 91
17:58:18.274771 433.09 1300 3496 14212 -1413 160 73
17:58:18.281902 433.1 1288 3384 14160 -1428 149 48
17:58:18.307241 433.11 1312 3364 14104 -1432 188 47
17:58:18.307356 433.12 1348 3300 13892 -1499 158 67
17:58:18.307445 433.13 1348 3204 14016 -1478 126 101
17:58:18.307529 433.14 1168 3204 14012 -1536 94 109
17:58:18.307611 433.15 1256 2916 14052 -1537 37 91
17:58:18.324749 433.16 1264 2900 14044 -1540 58 72
17:58:18.340974 433.17 1368 2892 14112 -1550 87 80
17:58:18.341090 433.18 1356 2900 14156 -1467 58 50
17:58:18.341178 433.19 1320 2836 14112 -1473 78 82
17:58:18.341263 433.2 1352 2908 13908 -1466 77 88
17:58:18.341346 433.21 1312 2760 14116 -1337 106 49
17:58:18.347459 433.22 1476 2792 14260 -1263 112 26
17:58:18.360608 433.23 1360 2832 14032 -1239 87 80
17:58:18.379883 433.24 1392 2692 14172 -1270 126 38
17:58:18.382630 433.25 1368 2656 14236 -1374 113 59
17:58:18.397514 433.26 1292 2808 14212 -1386 104 26
17:58:18.406259 433.27 1308 2600 14056 -1285 50 25
17:58:18.414588 433.28 1484 2604 14032 -1327 0 30
17:58:18.430479 433.29 1416 2560 14064 -1275 74 8
17:58:18.439196 433.3 1328 2540 14160 -1184 114 0
17:58:18.441106 433.31 1308 2472 14212 -1117 118 17
17:58:18.458045 433.32 1400 2568 14308 -1118 93 -6
17:58:18.473260 433.33 1384 2544 14240 -1179 88 -19
17:58:18.474838 433.34 1304 2496 14152 -1258 87 -16
17:58:18.481842 433.35 1256 2452 14096 -1214 64 -2
17:58:18.492614 433.36 1300 2264 14196 -1214 50 -6
17:58:18.506004 433.37 1336 2376 14200 -1040 44 -13
17:58:18.511708 433.38 1388 2336 14264 -1042 137 -3
17:58:18.536865 433.39 1260 2384 14220 -1159 105 -22
17:58:18.539635 433.4 1396 2372 14136 -1199 68 7
17:58:18.551661 433.41 1336 2224 14236 -1187 74 4
17:58:18.572143 433.42 1336 2304 14136 -1134 119 -5
17:58:18.574103 433.43 1444 2168 14184 -1088 128 -49
17:58:18.576344 433.44 1348 2192 14140 -1118 129 -7
17:58:18.598385 433.45 1360 2160 14188 -1183 112 -23
17:58:18.609589 433.46 1404 2208 14332 -1112 114 -13
17:58:18.609877 433.47 1412 2256 14216 -1110 106 -22
17:58:18.628765 433.48 1368 2196 14232 -1067 134 -35
17:58:18.639405 433.49 1512 2204 14168 -1048 121 -30
17:58:18.639734 433.5 1476 2092 14284 -1012 128 -26
17:58:18.647513 433.51 1504 2052 14156 -1061 113 -8
17:58:18.699879 433.52 1324 2084 14076 -1058 -14 -2
17:58:18.706000 433.53 1384 2048 14016 -990 -4 18
17:58:18.706133 433.54 1412 2032 14268 -640 103 -5
17:58:18.706312 433.55 1424 2024 14464 -311 175 -21
17:58:18.707920 433.56 1476 1980 14312 -314 205 -50
17:58:18.732013 433.57 1400 2040 14280 -369 176 -21
17:58:18.928244 433.58 1384 2024 13952 -485 75 19
17:58:18.943037 433.59 1420 2012 14056 -335 64 5
17:58:18.944952 433.6 1372 1900 14440 -16 208 10
17:58:18.946183 433.61 1392 2016 14228 -239 354 11
17:58:18.947463 433.62 1368 2056 13472 -999 81 70
17:58:18.948898 433.63 1584 1760 14384 -421 123 67
17:58:18.971018 433.64 1436 1992 14400 1064 262 -83
17:58:18.979990 433.65 1320 2072 13768 71 -113 8
17:58:18.982714 433.66 1484 1812 14132 236 93 11
17:58:19.007184 433.67 1468 2052 14224 945 435 -58
17:58:19.017115 433.68 1348 2196 14052 362 281 28
17:58:19.017295 433.69 1396 2172 13992 738 235 18
17:58:19.017403 433.7 1376 2168 14208 1082 232 -12
17:58:19.017506 433.71 1428 2256 14368 1321 245 -20
17:58:19.017608 433.72 1380 2228 14444 1295 311 -44
17:58:19.017710 433.73 1400 2416 14296 1245 389 -37
17:58:19.037061 433.74 1364 2412 14288 1056 404 -61
17:58:19.044493 433.75 1300 2412 14124 888 301 -19
17:58:19.044586 433.76 1496 2472 14104 863 283 -4
17:58:19.044902 433.77 1440 2464 14084 780 263 -11
17:58:19.062729 433.78 1252 2556 14212 787 324 -39
17:58:19.071855 433.79 1332 2552 14184 844 319 -51
17:58:19.072059 433.8 1364 2580 13940 856 357 -41
17:58:19.074722 433.81 1348 2580 14064 886 346 -52
17:58:19.090360 433.82 1272 2732 14236 1185 404 -80
17:58:19.096706 433.83 1304 2652 14292 1284 448 -54
17:58:19.112335 433.84 1344 2756 14148 1133 312 -82
17:58:19.133447 433.85 1404 2756 14432 1270 640 -86
17:58:19.142889 433.86 1212 2900 14016 952 502 -26
17:58:19.151615 433.87 1356 2684 13980 528 386 2
17:58:19.153414 433.88 1468 2740 14044 827 432 -51
17:58:19.175169 433.89 1328 2792 13944 869 205 -58
17:58:19.175400 433.9 1376 2864 14224 1182 287 -99
17:58:19.187835 433.91 1412 2880 14260 1120 267 -71
17:58:19.208502 433.92 1352 2848 14144 904 276 -61
17:58:19.208648 433.93 1252 2940 14112 964 225 -60
17:58:19.209325 433.94 1268 2952 13976 887 188 -64
17:58:19.235244 433.95 1256 3016 14172 900 266 -97
17:58:19.243479 433.96 1260 3000 14132 965 287 -92
17:58:19.247577 433.97 1368 2984 14176 1115 313 -114
17:58:19.262852 433.98 1296 3024 14256 1125 341 -126
17:58:19.278494 433.99 1336 3016 13908 909 373 -93
17:58:19.295094 434.0 1340 2988 14076 847 346 -96
17:58:19.312936 434.01 1432 3060 14124 928 364 -88
17:58:19.313212 434.02 1356 3092 14076 904 388 -78
17:58:19.313551 434.03 1324 3072 13968 694 315 -77
17:58:19.322094 434.04 1280 3128 13960 693 272 -69
17:58:19.341979 434.05 1220 3212 13944 793 276 -76
17:58:19.344607 434.06 1344 3068 14152 1043 300 -79
17:58:19.352473 434.07 1324 3264 14068 1045 302 -57
17:58:19.369926 434.08 1320 3232 13988 874 248 -80
17:58:19.376190 434.09 1372 3308 14092 857 265 -49
17:58:19.382482 434.1 1312 3364 14084 876 308 -80
17:58:19.404079 434.11 1252 3320 14100 808 333 -43
17:58:19.413326 434.12 1300 3408 13944 745 315 -39
17:58:19.430828 434.13 1236 3292 13932 760 283 -71
17:58:19.444662 434.14 1268 3384 14016 772 294 -83
17:58:19.444859 434.15 1272 3480 13996 766 276 -55
17:58:19.445091 434.16 1288 3396 13992 811 292 -66
17:58:19.449372 434.17 1300 3344 13996 757 308 -50
17:58:19.464887 434.18 1220 3480 14120 693 275 -63
17:58:19.479504 434.19 1236 3444 14024 704 265 -47
17:58:19.487257 434.2 1096 3504 14092 726 282 -48
17:58:19.508496 434.21 1348 3600 14128 769 242 -84
17:58:19.509720 434.22 1332 3512 13948 797 302 -91
17:58:19.534988 434.23 1308 3480 13836 721 336 -93
17:58:19.542660 434.24 1288 3516 13948 718 290 -80
17:58:19.549588 434.25 1256 3560 13976 722 336 -90
17:58:19.552243 434.26 1160 3644 13972 692 279 -77
17:58:19.568408 434.27 1188 3640 14096 637 285 -70
17:58:19.586895 434.28 1208 3540 14040 674 288 -58
17:58:19.587685 434.29 1264 3688 13932 672 217 -52
17:58:19.611010 434.3 1288 3692 13856 658 281 -60
17:58:19.613068 434.31 1340 3816 14024 625 284 -84
17:58:19.632406 434.32 1232 3764 14076 567 291 -45
17:58:19.643928 434.33 1212 3840 13944 585 295 -40
17:58:19.644104 434.34 1236 3796 13984 514 296 -87
17:58:19.644419 434.35 1244 3728 13912 501 301 -67
17:58:19.669045 434.36 1260 3676 14028 486 241 -72
17:58:19.676694 434.37 1232 3704 14004 454 293 -67
17:58:19.681944 434.38 1344 3784 13948 522 298 -93
17:58:19.711147 434.39 1260 3880 14016 453 293 -58
17:58:19.712288 434.4 1232 3904 14004 395 297 -65
17:58:19.713445 434.41 1232 3872 13980 395 318 -27
17:58:19.719976 434.42 1348 3896 13908 363 311 -74
17:58:19.743250 434.43 1300 3852 13900 430 327 -78
17:58:19.750475 434.44 1292 3948 13956 466 350 -66
17:58:19.766513 434.45 1240 3892 13944 319 307 -60
17:58:19.779703 434.46 1120 3916 13792 180 262 -62
17:58:19.781515 434.47 1192 3876 13816 76 220 -15
17:58:19.783421 434.48 1228 3916 13776 138 222 -7
17:58:19.792351 434.49 1204 3956 13964 369 345 -50
17:58:19.805316 434.5 1220 4032 13920 506 360 -89
17:58:19.842550 434.51 1120 4076 14064 419 322 -88
17:58:19.846641 434.52 1128 3992 13928 192 318 -70
17:58:19.850120 434.53 1124 3960 13784 98 260 -51
17:58:19.853471 434.54 1128 3880 13944 198 197 -47
17:58:19.872351 434.55 1196 4000 14060 -9 188 8
17:58:19.904855 434.56 1076 4052 13496 -842 221 106
17:58:19.914184 434.57 1408 3804 14000 -299 162 22
17:58:19.914347 434.58 1340 3984 14440 800 508 -158
17:58:19.914477 434.59 1084 4244 14096 356 177 -114
17:58:19.939848 434.6 1164 4032 13944 -277 108 -8
17:58:19.949822 434.61 1144 3988 13908 -97 324 -20
17:58:19.992771 434.62 1096 3932 13664 -817 34 106
17:58:20.010881 434.63 1284 3644 13540 -707 -80 126
17:58:20.011165 434.64 1276 3788 13808 -30 -23 86
17:58:20.011395 434.65 1344 3944 14016 228 -60 19
17:58:20.011618 434.66 1204 4004 14112 288 -72 1
17:58:20.012724 434.67 1256 4032 14116 199 -18 19
17:58:20.013850 434.68 1216 4052 13916 62 119 33
17:58:20.015069 434.69 1244 4152 13988 38 114 28
17:58:20.018105 434.7 1236 4064 13976 -60 226 17
17:58:20.020781 434.71 1148 4064 13916 -93 300 -21
17:58:20.071375 434.72 1164 3992 13700 -109 255 -12
17:58:20.082041 434.73 1220 4036 13676 -56 288 -40
17:58:20.082237 434.74 1160 3952 13712 80 224 -28
17:58:20.082395 434.75 1260 3932 13800 110 221 -37
17:58:20.082543 434.76 1296 4020 13828 10 190 -12
17:58:20.082690 434.77 1232 4064 14040 -124 180 -16
17:58:20.103520 434.78 1236 3992 14004 -190 182 1
17:58:20.123348 434.79 1148 3988 14044 -323 186 -35
17:58:20.126486 434.8 1272 3960 13884 -404 243 -18
17:58:20.144926 434.81 1312 4048 14072 -483 250 6
17:58:20.145158 434.82 1240 3904 13960 -591 261 -7
17:58:20.145504 434.83 1188 4016 13896 -742 242 17
17:58:20.187139 434.84 1224 4020 13856 -846 195 26
17:58:20.189658 434.85 1208 4068 14024 -854 174 51
17:58:20.208094 434.86 1132 3908 13844 -833 134 37
17:58:20.213990 434.87 1100 3876 13916 -797 118 66
17:58:20.214183 434.88 1192 3976 13900 -752 141 61
17:58:20.214414 434.89 1220 3884 13984 -780 209 41
17:58:20.224620 434.9 1200 3868 14060 -780 248 27
17:58:20.227161 434.91 1236 3964 14012 -787 211 12
17:58:20.246600 434.92 1300 3896 14408 -800 269 13
17:58:20.267971 434.93 1100 3980 13872 -997 476 30
17:58:20.278899 434.94 1164 3772 13748 -1830 7 152
17:58:20.287498 434.95 1200 3684 13904 -1394 205 64
17:58:20.288783 434.96 1296 3612 14112 -890 80 43
17:58:20.289951 434.97 1276 3800 13956 -1183 71 83
17:58:20.307147 434.98 1244 3688 13876 -1435 62 119
17:58:20.316020 434.99 1288 3720 13928 -1434 85 131
17:58:20.341884 435.0 1344 3680 14068 -1294 80 125
17:58:20.347305 435.01 1288 3672 14004 -1290 4 116
17:58:20.347415 435.02 1216 3660 13988 -1374 54 85
17:58:20.359879 435.03 1292 3616 14044 -1365 89 109
17:58:20.381524 435.04 1284 3640 13964 -1350 57 113
17:58:20.411376 435.05 1264 3532 13924 -1318 86 101
17:58:20.417656 435.06 1292 3532 14032 -1395 161 102
17:58:20.417930 435.07 1344 3456 14008 -1496 199 70
17:58:20.418218 435.08 1256 3480 14048 -1536 177 85
17:58:20.436336 435.09 1316 3324 14108 -1545 149 92
17:58:20.450723 435.1 1264 3404 14076 -1513 183 110
17:58:20.451065 435.11 1248 3332 13900 -1531 76 83
17:58:20.451400 435.12 1304 3284 13972 -1617 9 104
17:58:20.471101 435.13 1292 3196 13880 -1421 51 81
17:58:20.505961 435.14 1340 3136 13916 -1240 64 109
17:58:20.515167 435.15 1196 3172 14096 -1291 72 81
17:58:20.515321 435.16 1296 3084 13980 -1477 119 83
17:58:20.547234 435.17 1336 3104 14064 -1422 106 113
17:58:20.550765 435.18 1248 3140 13960 -1398 84 87
17:58:20.553057 435.19 1356 3048 14032 -1385 61 107
17:58:20.554170 435.2 1364 3148 14096 -1262 104 78
17:58:20.557263 435.21 1224 3100 14028 -1269 104 63
17:58:20.583243 435.22 1304 3028 14160 -1267 84 86
17:58:20.584357 435.23 1216 3056 14052 -1275 97 70
17:58:20.586326 435.24 1380 2884 14192 -1253 133 60
17:58:20.589586 435.25 1296 3048 14228 -1253 97 47
17:58:20.591065 435.26 1292 2948 14044 -1221 68 65
17:58:20.646260 435.27 1288 2868 14228 -1225 119 63
17:58:20.649692 435.28 1368 2912 14120 -1167 105 82
17:58:20.650814 435.29 1204 2812 14228 -1230 107 60
17:58:20.651905 435.3 1440 2804 14048 -1245 96 57
17:58:20.655001 435.31 1312 2784 14264 -1231 83 33
17:58:20.656221 435.32 1428 2816 14184 -1226 124 30
17:58:20.676666 435.33 1364 2808 14156 -1324 132 13
17:58:20.685021 435.34 1408 2824 14104 -1276 120 17
17:58:20.707212 435.35 1376 2708 14180 -1255 128 10
17:58:20.715478 435.36 1256 2644 14120 -1229 135 19
17:58:20.716818 435.37 1332 2620 14012 -1257 91 12
17:58:20.740747 435.38 1300 2656 14060 -1243 80 32
17:58:20.783281 435.39 1296 2568 14020 -1212 37 26
17:58:20.784653 435.4 1344 2572 14156 -1179 45 12
17:58:20.785565 435.41 1492 2568 14100 -1024 4 47
17:58:20.786819 435.42 1364 2588 14268 -1036 58 26
17:58:20.789819 435.43 1360 2512 14108 -990 102 28
17:58:20.796088 435.44 1448 2576 14152 -904 101 42
17:58:20.819966 435.45 1332 2528 14136 -909 133 20
17:58:20.820107 435.46 1344 2460 14208 -896 111 5
17:58:20.823058 435.47 1300 2452 14232 -918 114 31
17:58:20.840530 435.48 1340 2412 14140 -890 99 10
17:58:20.861201 435.49 1352 2452 14128 -886 134 36
17:58:20.861793 435.5 1332 2420 14096 -1013 84 17
17:58:20.863967 435.51 1492 2440 14316 -1045 31 7
17:58:20.884125 435.52 1400 2400 14072 -956 80 -1
17:58:20.884270 435.53 1468 2456 14096 -1053 106 -4
17:58:20.884375 435.54 1420 2356 14324 -1054 114 -12
17:58:20.889297 435.55 1456 2276 14248 -906 149 -19
17:58:20.912950 435.56 1312 2292 14144 -946 183 -22
17:58:20.974908 435.57 1224 2316 14156 -1081 145 -9
17:58:20.982634 435.58 1320 2120 14036 -1116 20 9
17:58:20.982779 435.59 1424 2008 14020 -1035 -20 7
17:58:21.009816 435.6 1456 2164 14088 -629 89 -19
17:58:21.019045 435.61 1472 2240 14124 -311 189 -30
17:58:21.019138 435.62 1400 2304 14076 -249 234 -13
17:58:21.022853 435.63 1460 2172 14232 -334 176 -29
17:58:21.023817 435.64 1216 2216 14096 -389 141 8
17:58:21.043883 435.65 1380 2088 14024 -279 106 13
17:58:21.052028 435.66 1316 2204 14356 61 283 -3
17:58:21.061034 435.67 1256 2096 14348 -106 353 24
17:58:21.061937 435.68 1348 2192 13644 -833 199 112
17:58:21.087152 435.69 1484 1896 14364 -338 178 75
17:58:21.090196 435.7 1604 2108 14600 917 299 -50
17:58:21.092672 435.71 1484 2380 13804 402 -107 -15
17:58:21.093879 435.72 1560 2016 14392 568 312 -34
17:58:21.095089 435.73 1336 2340 13920 284 134 36
17:58:21.097544 435.74 1332 1980 13468 -509 -100 134
17:58:21.119329 435.75 1464 2080 14176 648 230 56
17:58:21.145330 435.76 1452 2192 14424 1202 367 -23
17:58:21.151030 435.77 1448 2340 14432 1390 349 -68
17:58:21.151402 435.78 1352 2380 14400 1294 331 -29
17:58:21.151805 435.79 1436 2520 14356 983 401 -45
17:58:21.152804 435.8 1320 2368 14172 906 398 16
17:58:21.176632 435.81 1340 2536 14248 790 230 8
17:58:21.184459 435.82 1396 2552 14332 590 280 6
17:58:21.190565 435.83 1364 2308 14072 442 321 -13
17:58:21.205642 435.84 1292 2308 14048 542 343 -28
17:58:21.222618 435.85 1336 2424 13912 728 246 3
17:58:21.223046 435.86 1468 2272 14100 1157 235 -50
17:58:21.288822 435.87 1424 2324 14232 1459 200 -42
17:58:21.289995 435.88 1364 2476 14336 1516 282 -56
17:58:21.293121 435.89 1472 2524 14208 1440 384 -74
17:58:21.295543 435.9 1404 2656 14344 1274 408 -86
17:58:21.297271 435.91 1376 2536 14268 1211 368 -72
17:58:21.297846 435.92 1424 2664 14208 1157 376 -80
17:58:21.300766 435.93 1316 2640 14144 1046 348 -46
17:58:21.322187 435.94 1432 2592 14200 1064 375 -44
17:58:21.340253 435.95 1376 2708 14312 1024 366 -57
17:58:21.382901 435.96 1356 2864 14072 996 386 -28
17:58:21.390249 435.97 1240 2724 14088 978 302 -36
17:58:21.390361 435.98 1344 2792 14072 1032 348 -54
17:58:21.390532 435.99 1316 2808 14040 1090 377 -35
17:58:21.390733 436.0 1260 3004 14160 1284 343 -70
17:58:21.391914 436.01 1296 3016 14176 1353 367 -63
17:58:21.398664 436.02 1372 2944 14284 1361 444 -138
17:58:21.420319 436.03 1260 3060 14032 1271 626 -100
17:58:21.420550 436.04 1260 2928 13852 588 346 -32
17:58:21.420921 436.05 1368 2900 14144 624 440 -68
17:58:21.432224 436.06 1220 2964 14008 842 241 -73
17:58:21.453605 436.07 1360 3068 14096 1149 198 -109
17:58:21.495855 436.08 1396 3108 14116 1338 317 -127
17:58:21.497120 436.09 1224 3108 14056 1045 338 -106
17:58:21.515705 436.1 1388 3168 14184 927 285 -89
17:58:21.527732 436.11 1348 3136 14168 905 190 -45
17:58:21.527844 436.12 1340 3224 14052 796 231 -62
17:58:21.530214 436.13 1388 3132 14044 860 255 -100
17:58:21.532569 436.14 1448 3240 14132 1096 340 -142
17:58:21.556564 436.15 1268 3296 13996 1017 381 -141
17:58:21.556813 436.16 1340 3260 14088 899 370 -116
17:58:21.582324 436.17 1324 3228 14084 761 323 -73
17:58:21.588691 436.18 1232 3284 14092 834 348 -103
17:58:21.588834 436.19 1312 3212 13932 835 313 -70
17:58:21.588997 436.2 1220 3324 13948 669 277 -67
17:58:21.589937 436.21 1380 3396 14020 652 276 -62
17:58:21.592565 436.22 1308 3392 14096 720 342 -83
17:58:21.611686 436.23 1248 3464 14052 744 327 -75
17:58:21.623503 436.24 1272 3560 14076 831 306 -99
17:58:21.633462 436.25 1192 3436 13792 756 280 -82
17:58:21.655901 436.26 1324 3520 13972 655 279 -49
17:58:21.656081 436.27 1380 3496 14032 611 235 -61
17:58:21.722324 436.28 1288 3576 14112 612 289 -39
17:58:21.724814 436.29 1308 3544 14008 595 260 -74
17:58:21.729706 436.3 1336 3572 14020 639 310 -65
17:58:21.736558 436.31 1248 3600 13872 623 275 -55
17:58:21.760024 436.32 1400 3624 13968 631 292 -88
17:58:21.760135 436.33 1164 3624 14088 645 339 -98
17:58:21.760343 436.34 1220 3700 14016 612 351 -86
17:58:21.760494 436.35 1312 3640 13972 543 320 -79
17:58:21.760624 436.36 1224 3656 13984 527 303 -70
17:58:21.760815 436.37 1268 3600 13848 550 269 -68
17:58:21.769950 436.38 1324 3768 13952 507 295 -84
17:58:21.795795 436.39 1180 3648 13964 490 244 -87
17:58:21.800324 436.4 1232 3624 13904 505 337 -104
17:58:21.801472 436.41 1252 3736 14020 554 292 -67
17:58:21.828026 436.42 1232 3772 13944 545 288 -97
17:58:21.828200 436.43 1240 3812 13968 513 284 -83
17:58:21.828385 436.44 1136 3792 13988 518 282 -67
17:58:21.845075 436.45 1172 3876 13864 447 286 -83
17:58:21.856423 436.46 1200 3752 13940 423 255 -41
17:58:21.933750 436.47 1220 3896 13880 388 277 -49
17:58:21.934805 436.48 1160 3816 14024 394 261 -72
17:58:21.938164 436.49 1324 3872 14048 363 287 -52
17:58:21.963017 436.5 1268 3816 13972 326 294 -48
17:58:21.963201 436.51 1192 3852 13888 303 268 -63
17:58:21.968005 436.52 1260 3864 13980 269 284 -63
17:58:21.992797 436.53 1132 3836 14032 248 284 -65
17:58:21.992907 436.54 1168 3896 13892 263 287 -74
17:58:21.992979 436.55 1300 3888 13968 291 277 -66
17:58:21.993049 436.56 1316 3896 13988 299 283 -42
17:58:21.993120 436.57 1220 3992 13828 244 269 -65
17:58:21.993189 436.58 1228 3880 13860 252 305 -67
17:58:21.993256 436.59 1232 3936 13956 205 305 -57
17:58:21.993322 436.6 1192 4044 13984 168 270 -63
17:58:22.018748 436.61 1176 3996 13956 223 270 -17
17:58:22.028884 436.62 1196 4012 13840 158 263 -33
17:58:22.029075 436.63 1224 3968 13784 157 233 -32
17:58:22.051433 436.64 1224 3932 13940 133 247 -38
17:58:22.061608 436.65 1200 4036 13908 141 289 -49
17:58:22.061785 436.66 1108 3956 13996 156 285 -57
17:58:22.080999 436.67 1252 4160 13952 132 305 -45
17:58:22.088508 436.68 1164 4040 13864 60 266 -49
17:58:22.088695 436.69 1180 3968 13900 -56 243 -28
17:58:22.089509 436.7 1156 3936 13740 -127 204 -42
17:58:22.117846 436.71 1296 3876 13872 -53 197 -15
17:58:22.125787 436.72 1232 3956 13968 194 307 -54
17:58:22.129563 436.73 1192 4024 13964 321 398 -98
17:58:22.132544 436.74 1124 4060 13904 214 335 -60
17:58:22.150969 436.75 1152 4008 13912 66 322 -66
17:58:22.166647 436.76 1144 4008 13760 -139 256 -26
17:58:22.169146 436.77 1088 3956 13872 33 194 -40
17:58:22.196639 436.78 1088 3988 14100 -84 148 4
17:58:22.196759 436.79 1008 4136 13552 -723 279 98
17:58:22.203171 436.8 1256 3856 13700 -774 71 85
17:58:22.229577 436.81 1340 4116 14396 732 531 -131
17:58:22.231059 436.82 1184 4152 14012 258 184 -76
17:58:22.252625 436.83 1276 4080 14024 -334 104 22
17:58:22.263402 436.84 1296 4020 13768 -203 250 14
17:58:22.263636 436.85 1104 3804 13468 -925 -72 148
17:58:22.263912 436.86 1280 3804 13624 -447 -46 110
17:58:22.290169 436.87 1324 4000 13976 96 -30 52
17:58:22.296824 436.88 1184 3968 14124 328 -124 5
17:58:22.296986 436.89 1268 4036 14004 273 -85 13
17:58:22.329186 436.9 1196 4148 14092 132 61 0
17:58:22.331637 436.91 1120 4048 13940 111 55 38
17:58:22.331768 436.92 1104 4072 14008 39 126 7
17:58:22.352002 436.93 1264 4088 14000 -9 197 13
17:58:22.364079 436.94 1248 4116 13896 58 261 -29
17:58:22.390392 436.95 1232 4112 13768 64 263 -31
17:58:22.399979 436.96 1160 3980 13688 145 205 -35
17:58:22.400482 436.97 1212 3980 13876 293 190 -22
17:58:22.400895 436.98 1192 4072 13908 264 141 -28
17:58:22.412119 436.99 1220 4008 13940 108 165 -26
17:58:22.420698 437.0 1236 4044 13972 -8 233 -10
17:58:22.463293 437.01 1208 4072 13792 -49 229 -8
17:58:22.474536 437.02 1172 4044 13736 -197 256 -21
17:58:22.479047 437.03 1216 4040 13812 -227 243 -5
17:58:22.498384 437.04 1040 4120 14024 -249 207 -2
17:58:22.498489 437.05 1256 4080 13828 -300 240 0
17:58:22.498569 437.06 1188 4020 13940 -329 228 3
17:58:22.498644 437.07 1248 4004 13904 -287 226 7
17:58:22.504271 437.08 1184 4104 13864 -301 242 -22
17:58:22.533181 437.09 1236 4140 13868 -289 234 -43
17:58:22.533374 437.1 1264 4120 13900 -277 216 10
17:58:22.533534 437.11 1220 4076 13852 -273 240 -9
17:58:22.552155 437.12 1268 4184 13792 -241 260 -18
17:58:22.561752 437.13 1172 4128 13912 -284 217 -46
17:58:22.564137 437.14 1196 4064 14364 -163 358 -41
17:58:22.565756 437.15 972 4104 13764 -460 433 -10
17:58:22.584946 437.16 1072 3888 13664 -1186 127 83
17:58:22.585111 437.17 1220 3844 13880 -573 283 3
17:58:22.602514 437.18 1224 4084 14028 -352 197 -38
17:58:22.605529 437.19 1288 3968 13884 -614 143 14
17:58:22.623206 437.2 1240 4044 13972 -751 127 41
17:58:22.639508 437.21 1236 4072 13836 -898 156 44
17:58:22.662257 437.22 1088 4008 14084 -845 106 53
17:58:22.662384 437.23 1312 3952 13936 -931 46 46
17:58:22.662522 437.24 1140 3880 14136 -990 113 52
17:58:22.662627 437.25 1224 3912 13952 -942 141 43
17:58:22.684634 437.26 1180 4004 14088 -1005 120 51
17:58:22.694655 437.27 1220 3928 13988 -1116 123 66
17:58:22.697065 437.28 1256 3824 13804 -1269 131 99
17:58:22.725692 437.29 1256 3784 13840 -1351 97 114
17:58:22.731399 437.3 1348 3788 13840 -1263 107 105
17:58:22.731523 437.31 1236 3740 14020 -1196 93 102
17:58:22.734988 437.32 1204 3732 13824 -1263 136 77
17:58:22.758961 437.33 1172 3764 13880 -1395 78 130
17:58:22.765759 437.34 1236 3680 13768 -1360 68 104
17:58:22.789282 437.35 1208 3596 13968 -1251 97 88
17:58:22.801380 437.36 1156 3632 14036 -1290 96 85
17:58:22.801534 437.37 1256 3648 13940 -1333 118 88
17:58:22.802206 437.38 1244 3564 13976 -1330 155 137
17:58:22.802739 437.39 1252 3612 13980 -1412 198 102
17:58:22.817597 437.4 1284 3632 14060 -1442 180 113
17:58:22.840570 437.41 1308 3420 13988 -1402 118 81
17:58:22.869498 437.42 1280 3560 13972 -1350 106 104
17:58:22.878051 437.43 1288 3428 13864 -1326 137 85
17:58:22.883200 437.44 1236 3476 14028 -1272 158 108
17:58:22.884525 437.45 1224 3448 14156 -1266 121 116
17:58:22.885647 437.46 1252 3308 14016 -1338 168 87
17:58:22.902109 437.47 1184 3444 14100 -1364 135 64
17:58:22.917187 437.48 1236 3392 13972 -1359 151 86
17:58:22.917380 437.49 1232 3288 14180 -1338 154 91
17:58:22.922893 437.5 1264 3400 14040 -1328 150 72
17:58:22.946739 437.51 1388 3280 13992 -1371 111 81
17:58:22.954264 437.52 1308 3224 14020 -1410 95 90
17:58:22.956583 437.53 1292 3176 14068 -1374 79 81
17:58:22.978386 437.54 1344 3216 14044 -1335 59 94
17:58:22.978670 437.55 1292 3128 14256 -1439 62 76
17:58:22.981895 437.56 1376 3148 14092 -1384 27 67
17:58:23.002583 437.57 1300 3160 14204 -1409 125 56
17:58:23.031835 437.58 1264 3004 14060 -1468 105 73
17:58:23.047410 437.59 1340 3008 14008 -1480 39 74
17:58:23.047533 437.6 1300 2944 14064 -1386 61 90
17:58:23.047617 437.61 1256 2976 14268 -1343 25 71
17:58:23.074126 437.62 1256 2976 14236 -1432 53 57
17:58:23.087543 437.63 1284 2840 14104 -1373 55 72
17:58:23.088589 437.64 1284 2900 14140 -1373 66 73
17:58:23.090505 437.65 1340 2864 14112 -1378 67 47
17:58:23.112468 437.66 1272 2888 14132 -1374 111 52
17:58:23.112617 437.67 1324 2800 14116 -1305 41 8
17:58:23.112736 437.68 1408 2840 14120 -1347 65 48
17:58:23.116821 437.69 1384 2672 14080 -1305 58 38
17:58:23.134206 437.7 1304 2688 14148 -1276 104 65
17:58:23.143859 437.71 1284 2740 14220 -1288 90 38
17:58:23.156639 437.72 1204 2708 14076 -1262 85 9
17:58:23.177208 437.73 1368 2628 14236 -1238 121 10
17:58:23.179029 437.74 1400 2668 14240 -1279 88 29
17:58:23.181207 437.75 1372 2676 14280 -1310 116 29
17:58:23.192164 437.76 1292 2536 14264 -1317 90 24
17:58:23.213618 437.77 1356 2608 14144 -1319 20 21
17:58:23.216414 437.78 1380 2592 14040 -1344 21 4
17:58:23.217688 437.79 1500 2484 14032 -1476 -18 38
17:58:23.222523 437.8 1432 2512 14152 -1534 -6 5
17:58:23.237318 437.81 1384 2408 14276 -1239 80 -1
17:58:23.251869 437.82 1424 2412 14384 -969 150 -14
17:58:23.275077 437.83 1344 2416 14280 -966 128 -22
17:58:23.300007 437.84 1348 2444 14172 -1132 126 -37
17:58:23.311608 437.85 1280 2368 14136 -1255 -6 15
17:58:23.311888 437.86 1276 2204 13952 -1290 -47 36
17:58:23.312097 437.87 1436 2172 14232 -961 -37 22
17:58:23.312305 437.88 1408 2264 14400 -1060 217 25
17:58:23.337443 437.89 1240 2488 13704 -1830 235 3
17:58:23.346645 437.9 1576 2052 14160 -1940 -102 78
17:58:23.351512 437.91 1540 2096 14784 -437 266 -72
17:58:23.353392 437.92 1328 2340 14112 -602 -249 -8
17:58:23.357081 437.93 1348 2076 13768 -1546 -392 75
17:58:23.372586 437.94 1520 2036 14508 -489 223 -12
17:58:23.400308 437.95 1304 2068 13640 -1288 -220 74
17:58:23.419482 437.96 1508 1796 13836 -1375 -150 95
17:58:23.419619 437.97 1424 1964 14360 -207 144 11
17:58:23.419718 437.98 1472 2064 14700 67 306 -42
17:58:23.441563 437.99 1440 2180 14552 -36 233 -45
17:58:23.469409 438.0 1432 2160 14348 -268 195 11
17:58:23.479664 438.01 1348 2136 14168 -409 181 29
17:58:23.479877 438.02 1412 2116 14232 -389 58 87
17:58:23.480005 438.03 1468 2136 14136 -442 49 60
17:58:23.494273 438.04 1460 1952 14268 -491 105 43
17:58:23.515212 438.05 1396 1956 13872 -429 191 64
17:58:23.515326 438.06 1492 1976 13868 -206 200 67
17:58:23.515398 438.07 1460 1836 13924 170 128 25
17:58:23.515466 438.08 1536 1884 14196 490 170 0
17:58:23.541215 438.09 1532 1928 14200 683 158 -31
17:58:23.552700 438.1 1452 2024 14400 706 208 3
17:58:23.552827 438.11 1376 2076 14376 702 280 -5
17:58:23.569077 438.12 1520 2032 14184 637 302 20
17:58:23.587458 438.13 1492 2048 14108 657 312 -21
17:58:23.592135 438.14 1488 2152 14352 679 323 -35
17:58:23.618992 438.15 1396 2224 14196 596 315 -36
17:58:23.619128 438.16 1508 2060 14112 573 353 -10
17:58:23.640441 438.17 1392 2112 14084 651 205 -9
17:58:23.648373 438.18 1428 2240 14224 691 283 -27
17:58:23.648561 438.19 1452 2192 13960 806 268 2
17:58:23.649385 438.2 1468 2288 14124 1011 262 -9
17:58:23.718393 438.21 1460 2356 14284 1169 349 -33
17:58:23.719675 438.22 1432 2432 14176 1303 347 -46
17:58:23.724988 438.23 1460 2424 14304 1348 326 -44
17:58:23.734497 438.24 1424 2420 14248 1457 707 -72
17:58:23.752929 438.25 1340 2540 13996 832 375 -1
17:58:23.753130 438.26 1408 2340 14044 732 387 -13
17:58:23.753284 438.27 1364 2376 14024 1027 298 -50
17:58:23.753431 438.28 1360 2496 14164 1165 195 -11
17:58:23.753579 438.29 1424 2516 14252 1311 371 -56
17:58:23.757348 438.3 1312 2548 14156 1185 375 -44
17:58:23.759673 438.31 1516 2588 14308 1056 359 -55
17:58:23.783193 438.32 1504 2560 14124 958 237 -32
17:58:23.785369 438.33 1388 2600 14300 809 268 -70
17:58:23.794361 438.34 1516 2688 14188 850 301 -79
17:58:23.816051 438.35 1384 2644 14252 980 276 -78
17:58:23.816230 438.36 1496 2652 14160 1110 351 -75
17:58:23.843905 438.37 1344 2728 14168 1056 353 -78
17:58:23.852856 438.38 1408 2736 14160 938 410 -83
17:58:23.875742 438.39 1408 2768 14108 924 316 -64
17:58:23.886708 438.4 1384 2744 14140 1040 333 -56
17:58:23.886926 438.41 1336 2688 14316 1134 370 -92
17:58:23.887027 438.42 1260 2692 14088 1039 337 -63
17:58:23.891700 438.43 1380 2856 14032 938 380 -59
17:58:23.893202 438.44 1260 2756 14220 1080 367 -94
17:58:23.904585 438.45 1228 2908 14088 1191 368 -86
17:58:23.917180 438.46 1288 2880 14220 1147 349 -65
17:58:23.927410 438.47 1320 2968 14140 1018 321 -64
17:58:23.948914 438.48 1340 3072 14060 1004 338 -42
17:58:23.949121 438.49 1404 3128 14112 924 377 -46
17:58:23.949854 438.5 1248 3144 14124 842 400 -48
17:58:23.974454 438.51 1400 3136 14168 863 418 -69
17:58:23.981796 438.52 1364 3164 14068 815 354 -59
17:58:23.986898 438.53 1300 3040 14104 772 382 -83
17:58:24.010292 438.54 1324 3188 14156 872 346 -87
17:58:24.017999 438.55 1324 3188 14100 906 338 -64
17:58:24.018190 438.56 1312 3084 14180 869 348 -89
17:58:24.024853 438.57 1332 3128 14008 956 340 -86
17:58:24.077841 438.58 1324 3184 14028 913 298 -45
17:58:24.088629 438.59 1288 3216 14124 939 338 -71
17:58:24.088946 438.6 1300 3268 13956 953 334 -75
17:58:24.089194 438.61 1292 3200 14092 970 368 -82
17:58:24.089455 438.62 1340 3364 13968 918 362 -125
17:58:24.090574 438.63 1324 3316 14052 863 406 -116
17:58:24.093095 438.64 1300 3392 14000 882 338 -94
17:58:24.106826 438.65 1368 3292 14016 853 314 -116
17:58:24.122164 438.66 1276 3404 14052 867 327 -99
17:58:24.143250 438.67 1352 3444 14016 890 298 -99
17:58:24.151207 438.68 1332 3384 13976 868 301 -79
17:58:24.151360 438.69 1332 3496 14156 824 280 -64
17:58:24.178515 438.7 1300 3456 13992 840 322 -53
17:58:24.185925 438.71 1144 3468 13928 814 306 -87
17:58:24.191556 438.72 1248 3564 13984 814 300 -77
17:58:24.192546 438.73 1208 3516 13992 791 275 -71
17:58:24.204473 438.74 1272 3572 14028 852 266 -53
17:58:24.222456 438.75 1320 3636 14100 774 316 -92
17:58:24.225792 438.76 1312 3632 13972 739 332 -68
17:58:24.227739 438.77 1308 3692 14092 667 346 -72
17:58:24.242170 438.78 1256 3624 13868 636 303 -91
17:58:24.274948 438.79 1308 3672 13872 644 269 -95
17:58:24.282782 438.8 1252 3748 13952 664 327 -65
17:58:24.294010 438.81 1276 3724 13908 657 305 -84
17:58:24.295045 438.82 1300 3764 14032 616 303 -69
17:58:24.296360 438.83 1364 3788 14076 591 344 -61
17:58:24.316285 438.84 1268 3712 13960 597 323 -93
17:58:24.326872 438.85 1292 3756 13996 605 336 -61
17:58:24.328359 438.86 1260 3964 14040 503 311 -103
17:58:24.340242 438.87 1204 3812 13892 395 342 -56
17:58:24.372015 438.88 1180 3796 13772 289 243 -56
17:58:24.388355 438.89 1300 3764 13980 286 251 -56
17:58:24.388591 438.9 1276 3780 13928 372 281 -55
17:58:24.388839 438.91 1156 3860 14080 628 394 -116
17:58:24.389461 438.92 1172 3900 14056 607 370 -97
17:58:24.409199 438.93 1216 3924 13964 512 354 -108
17:58:24.424197 438.94 1256 3932 13828 238 329 -81
17:58:24.424371 438.95 1168 3832 13788 182 289 -74
17:58:24.450326 438.96 1236 3828 14140 245 210 -52
17:58:24.451326 438.97 1144 3932 13792 -148 349 37
17:58:24.452439 438.98 1100 3892 13504 -778 100 102
17:58:24.460099 438.99 1444 3800 14128 183 363 -51
17:58:24.506179 439.0 1348 4176 14192 955 436 -162
17:58:24.522569 439.01 1048 4072 13932 -23 61 -22
17:58:24.522696 439.02 1344 3876 13896 123 279 -59
17:58:24.522781 439.03 1208 3956 13808 -119 296 16
