18:03:00.010792, 440.165, 4201
18:03:00.010947, 440.1675, 4331
18:03:00.010986, 440.17, 4382
18:03:00.011035, 440.1725, 4400
18:03:00.011085, 440.175, 4467
18:03:00.011751, 440.1775, 4493
18:03:00.011795, 440.18, 4446
18:03:00.011819, 440.1825, 4241
18:03:00.011842, 440.185, 4061
18:03:00.012226, 440.1875, 3827
18:03:00.012255, 440.19, 3478
18:03:00.012277, 440.1925, 3195
18:03:00.012298, 440.195, 2774
18:03:00.042271, 440.1975, 2233
18:03:00.042370, 440.2, 1740
18:03:00.042396, 440.2025, 1548
18:03:00.042438, 440.205, 1609
18:03:00.042774, 440.2075, 1823
18:03:00.042808, 440.21, 2503
18:03:00.042823, 440.2125, 3467
18:03:00.042838, 440.215, 4384
18:03:00.045685, 440.2175, 4847
18:03:00.045730, 440.22, 5082
18:03:00.045753, 440.2225, 5014
18:03:00.045774, 440.225, 4853
18:03:00.054621, 440.2275, 4707
18:03:00.054668, 440.23, 4608
18:03:00.054691, 440.2325, 4584
18:03:00.054712, 440.235, 4517
18:03:00.079346, 440.2375, 4501
18:03:00.079436, 440.24, 4481
18:03:00.079460, 440.2425, 4467
18:03:00.079480, 440.245, 4484
18:03:00.079772, 440.2475, 4525
18:03:00.079795, 440.25, 4531
18:03:00.079810, 440.2525, 4511
18:03:00.079824, 440.255, 4514
18:03:00.079838, 440.2575, 4494
18:03:00.089811, 440.26, 4460
18:03:00.089864, 440.2625, 4475
18:03:00.089884, 440.265, 4459
18:03:00.089901, 440.2675, 4453
18:03:00.111577, 440.27, 4434
18:03:00.111644, 440.2725, 4446
18:03:00.111668, 440.275, 4427
18:03:00.111687, 440.2775, 4397
18:03:00.112066, 440.28, 4406
18:03:00.112094, 440.2825, 4392
18:03:00.112109, 440.285, 4393
18:03:00.112123, 440.2875, 4347
18:03:00.115514, 440.29, 4393
18:03:00.115592, 440.2925, 4390
18:03:00.115625, 440.295, 4346
18:03:00.115655, 440.2975, 4365
18:03:00.124575, 440.3, 4335
18:03:00.124619, 440.3025, 4329
18:03:00.124638, 440.305, 4274
18:03:00.124655, 440.3075, 4342
18:03:00.147700, 440.31, 4328
18:03:00.147770, 440.3125, 4298
18:03:00.147797, 440.315, 4299
18:03:00.147841, 440.3175, 4318
18:03:00.151134, 440.32, 4310
18:03:00.151193, 440.3225, 4232
18:03:00.151225, 440.325, 4266
18:03:00.151254, 440.3275, 4257
18:03:00.159917, 440.33, 4233
18:03:00.160011, 440.3325, 4245
18:03:00.160040, 440.335, 4256
18:03:00.160062, 440.3375, 4226
18:03:00.177167, 440.34, 4188
18:03:00.177269, 440.3425, 4238
18:03:00.177323, 440.345, 4224
18:03:00.177351, 440.3475, 4194
18:03:00.187773, 440.35, 4210
18:03:00.187814, 440.3525, 4224
18:03:00.187837, 440.355, 4208
18:03:00.187859, 440.3575, 4179
18:03:00.188798, 440.36, 4187
18:03:00.188817, 440.3625, 4188
18:03:00.188831, 440.365, 4186
18:03:00.188845, 440.3675, 4197
18:03:00.188859, 440.37, 4186
18:03:00.211177, 440.3725, 4184
18:03:00.211294, 440.375, 4028
18:03:00.211431, 440.3775, 4189
18:03:00.211542, 440.38, 4199
18:03:00.212272, 440.3825, 4168
18:03:00.212336, 440.385, 4180
18:03:00.212372, 440.3875, 4197
18:03:00.212403, 440.39, 4187
18:03:00.220699, 440.3925, 4167
18:03:00.220768, 440.395, 4199
18:03:00.220798, 440.3975, 4185
18:03:00.220825, 440.4, 4165
18:03:00.244276, 440.4025, 4191
18:03:00.244407, 440.405, 4192
18:03:00.244433, 440.4075, 4178
18:03:00.244453, 440.41, 4164
18:03:00.244783, 440.4125, 4187
18:03:00.244830, 440.415, 4207
18:03:00.244849, 440.4175, 4171
18:03:00.244864, 440.42, 4191
18:03:00.255725, 440.4225, 4195
18:03:00.255773, 440.425, 4208
18:03:00.255791, 440.4275, 4154
18:03:00.255806, 440.43, 4193
18:03:00.277467, 440.4325, 4183
18:03:00.277597, 440.435, 4202
18:03:00.277637, 440.4375, 4205
18:03:00.277669, 440.44, 4204
18:03:00.277701, 440.4425, 4204
18:03:00.283838, 440.445, 4164
18:03:00.283880, 440.4475, 4227
18:03:00.283897, 440.45, 4214
18:03:00.283912, 440.4525, 4183
18:03:00.285060, 440.455, 4203
18:03:00.285084, 440.4575, 4197
18:03:00.285100, 440.46, 4184
18:03:00.285115, 440.4625, 4136
18:03:00.290618, 440.465, 4171
18:03:00.290653, 440.4675, 4160
18:03:00.290672, 440.47, 4138
18:03:00.290691, 440.4725, 4139
18:03:00.311554, 440.475, 4160
18:03:00.311688, 440.4775, 4141
18:03:00.311737, 440.48, 4086
18:03:00.311775, 440.4825, 4111
18:03:00.312429, 440.485, 4107
18:03:00.312478, 440.4875, 4118
18:03:00.312505, 440.49, 4121
18:03:00.312532, 440.4925, 4112
18:03:00.326049, 440.495, 4094
18:03:00.326136, 440.4975, 4060
18:03:00.326170, 440.5, 4110
18:03:00.326208, 440.5025, 4113
18:03:00.347727, 440.505, 4103
18:03:00.347816, 440.5075, 4126
18:03:00.347854, 440.51, 4114
18:03:00.347885, 440.5125, 4124
18:03:00.349169, 440.515, 4106
18:03:00.349273, 440.5175, 4160
18:03:00.349357, 440.52, 4170
18:03:00.349435, 440.5225, 4149
18:03:00.352750, 440.525, 4165
18:03:00.352860, 440.5275, 4185
18:03:00.352946, 440.53, 4189
18:03:00.353028, 440.5325, 4163
18:03:00.378294, 440.535, 4225
18:03:00.378363, 440.5375, 4216
18:03:00.378401, 440.54, 4200
18:03:00.378488, 440.5425, 4236
18:03:00.378534, 440.545, 4245
18:03:00.379064, 440.5475, 4219
18:03:00.379119, 440.55, 4192
18:03:00.379148, 440.5525, 4250
18:03:00.379175, 440.555, 4264
18:03:00.410488, 440.5575, 4237
18:03:00.410577, 440.56, 4246
18:03:00.410599, 440.5625, 4235
18:03:00.410619, 440.565, 4225
18:03:00.411088, 440.5675, 4210
18:03:00.411140, 440.57, 4230
18:03:00.411169, 440.5725, 4240
18:03:00.411196, 440.575, 4226
18:03:00.411669, 440.5775, 4243
18:03:00.411717, 440.58, 4233
18:03:00.411745, 440.5825, 4209
18:03:00.411771, 440.585, 4093
18:03:00.424238, 440.5875, 4249
18:03:00.424329, 440.59, 4254
18:03:00.424369, 440.5925, 4217
18:03:00.424406, 440.595, 4219
18:03:00.425638, 440.5975, 4230
18:03:00.425685, 440.6, 4230
18:03:00.425705, 440.6025, 4183
18:03:00.425723, 440.605, 4207
18:03:00.447237, 440.6075, 4195
18:03:00.447337, 440.61, 4200
18:03:00.447377, 440.6125, 4180
18:03:00.447424, 440.615, 4213
18:03:00.448126, 440.6175, 4204
18:03:00.448166, 440.62, 4157
18:03:00.448191, 440.6225, 4192
18:03:00.448215, 440.625, 4195
18:03:00.482828, 440.6275, 4181
18:03:00.482962, 440.63, 4194
18:03:00.483007, 440.6325, 4192
18:03:00.483045, 440.635, 4195
18:03:00.483085, 440.6375, 4135
18:03:00.483711, 440.64, 4176
18:03:00.483754, 440.6425, 4170
18:03:00.483784, 440.645, 4156
18:03:00.483813, 440.6475, 4162
18:03:00.484327, 440.65, 4164
18:03:00.484372, 440.6525, 4167
18:03:00.484405, 440.655, 4012
18:03:00.484435, 440.6575, 4177
18:03:00.484947, 440.66, 4186
18:03:00.484984, 440.6625, 4145
18:03:00.485013, 440.665, 4157
18:03:00.485042, 440.6675, 4167
18:03:00.514706, 440.67, 4177
18:03:00.514827, 440.6725, 4132
18:03:00.514945, 440.675, 4168
18:03:00.515034, 440.6775, 4170
18:03:00.515717, 440.68, 4177
18:03:00.515762, 440.6825, 4188
18:03:00.515793, 440.685, 4184
18:03:00.515823, 440.6875, 4183
18:03:00.515852, 440.69, 4158
18:03:00.518056, 440.6925, 4190
18:03:00.518096, 440.695, 4191
18:03:00.518126, 440.6975, 4160
18:03:00.518155, 440.7, 4161
18:03:00.527758, 440.7025, 4184
18:03:00.527881, 440.705, 4167
18:03:00.527906, 440.7075, 4117
18:03:00.527926, 440.71, 4184
18:03:00.544973, 440.7125, 4176
18:03:00.545101, 440.715, 4150
18:03:00.545161, 440.7175, 4171
18:03:00.545215, 440.72, 4179
18:03:00.552969, 440.7225, 4180
18:03:00.553023, 440.725, 4158
18:03:00.553049, 440.7275, 4221
18:03:00.553072, 440.73, 4200
18:03:00.578025, 440.7325, 4149
18:03:00.578110, 440.735, 4154
18:03:00.578136, 440.7375, 4152
18:03:00.578157, 440.74, 4149
18:03:00.581468, 440.7425, 4104
18:03:00.581508, 440.745, 4167
18:03:00.581525, 440.7475, 4151
18:03:00.581540, 440.75, 4142
18:03:00.582675, 440.7525, 4180
18:03:00.582696, 440.755, 4183
18:03:00.582711, 440.7575, 4166
18:03:00.582726, 440.76, 4152
18:03:00.582741, 440.7625, 4148
18:03:00.587945, 440.765, 4172
18:03:00.587981, 440.7675, 4150
18:03:00.588006, 440.77, 4171
18:03:00.588029, 440.7725, 4184
18:03:00.614651, 440.775, 4174
18:03:00.614761, 440.7775, 4149
18:03:00.614801, 440.78, 4190
18:03:00.614865, 440.7825, 4187
18:03:00.615353, 440.785, 4197
18:03:00.615387, 440.7875, 4169
18:03:00.615411, 440.79, 4161
18:03:00.615434, 440.7925, 4183
18:03:00.623170, 440.795, 4129
18:03:00.623225, 440.7975, 4174
18:03:00.623263, 440.8, 4182
18:03:00.623297, 440.8025, 4182
18:03:00.646172, 440.805, 4187
18:03:00.646313, 440.8075, 4172
18:03:00.646350, 440.81, 4169
18:03:00.646403, 440.8125, 4116
18:03:00.651625, 440.815, 4164
18:03:00.651691, 440.8175, 4174
18:03:00.651725, 440.82, 4153
18:03:00.651757, 440.8225, 4163
18:03:00.652840, 440.825, 4177
18:03:00.652883, 440.8275, 4170
18:03:00.652915, 440.83, 4160
18:03:00.652946, 440.8325, 4192
18:03:00.682466, 440.835, 4180
18:03:00.682536, 440.8375, 4145
18:03:00.682571, 440.84, 4174
18:03:00.682602, 440.8425, 4183
18:03:00.683330, 440.845, 4176
18:03:00.683385, 440.8475, 4155
18:03:00.683422, 440.85, 4169
18:03:00.683456, 440.8525, 4149
18:03:00.683491, 440.855, 4145
18:03:00.684402, 440.8575, 4154
18:03:00.684447, 440.86, 4160
18:03:00.684482, 440.8625, 4136
18:03:00.684565, 440.865, 3986
18:03:00.694053, 440.8675, 4174
18:03:00.694146, 440.87, 4144
18:03:00.694179, 440.8725, 4127
18:03:00.694220, 440.875, 4137
18:03:00.712230, 440.8775, 4134
18:03:00.712304, 440.88, 4167
18:03:00.712344, 440.8825, 4103
18:03:00.712364, 440.885, 4149
18:03:00.712776, 440.8875, 4168
18:03:00.712810, 440.89, 4139
18:03:00.712826, 440.8925, 4155
18:03:00.712841, 440.895, 4145
18:03:00.728627, 440.8975, 4129
18:03:00.728679, 440.9, 4107
18:03:00.728701, 440.9025, 4178
18:03:00.728723, 440.905, 4145
18:03:00.728752, 440.9075, 4133
18:03:00.748311, 440.91, 4146
18:03:00.748391, 440.9125, 4156
18:03:00.748423, 440.915, 4152
18:03:00.748452, 440.9175, 4117
18:03:00.749159, 440.92, 4147
18:03:00.749196, 440.9225, 4158
18:03:00.749223, 440.925, 4135
18:03:00.749251, 440.9275, 4154
18:03:00.754316, 440.93, 4161
18:03:00.754340, 440.9325, 4148
18:03:00.754357, 440.935, 3997
18:03:00.754372, 440.9375, 4168
18:03:00.782425, 440.94, 4173
18:03:00.782502, 440.9425, 4154
18:03:00.782533, 440.945, 4154
18:03:00.782572, 440.9475, 4145
18:03:00.783231, 440.95, 4133
18:03:00.783279, 440.9525, 4101
18:03:00.783312, 440.955, 4147
18:03:00.783341, 440.9575, 4151
18:03:00.789061, 440.96, 4137
18:03:00.789097, 440.9625, 4143
18:03:00.789113, 440.965, 4155
18:03:00.789127, 440.9675, 4149
18:03:00.817569, 440.97, 4111
18:03:00.817665, 440.9725, 4170
18:03:00.817709, 440.975, 4141
18:03:00.817745, 440.9775, 4123
18:03:00.818348, 440.98, 4136
18:03:00.818396, 440.9825, 4140
18:03:00.818423, 440.985, 4142
18:03:00.818449, 440.9875, 4093
18:03:00.819344, 440.99, 4138
18:03:00.819418, 440.9925, 4137
18:03:00.819472, 440.995, 4119
18:03:00.819523, 440.9975, 4148
18:03:00.847886, 441.0, 4150
18:03:00.848011, 441.0025, 4140
18:03:00.848052, 441.005, 4102
18:03:00.848143, 441.0075, 4133
18:03:00.848180, 441.01, 4130
18:03:00.848646, 441.0125, 4132
18:03:00.848684, 441.015, 4150
18:03:00.848706, 441.0175, 4136
18:03:00.848728, 441.02, 4144
18:03:00.850518, 441.0225, 4077
18:03:00.850546, 441.025, 4144
18:03:00.850566, 441.0275, 4146
18:03:00.850586, 441.03, 4118
18:03:00.859265, 441.0325, 4115
18:03:00.859289, 441.035, 4137
18:03:00.859305, 441.0375, 4141
18:03:00.859319, 441.04, 4099
18:03:00.880022, 441.0425, 4139
18:03:00.880127, 441.045, 4138
18:03:00.880161, 441.0475, 4135
18:03:00.880189, 441.05, 4173
18:03:00.880685, 441.0525, 4184
18:03:00.880724, 441.055, 4170
18:03:00.880741, 441.0575, 4117
18:03:00.880756, 441.06, 4176
18:03:00.896192, 441.0625, 4140
18:03:00.896231, 441.065, 4153
18:03:00.896252, 441.0675, 4186
18:03:00.896271, 441.07, 4165
18:03:00.916353, 441.0725, 4164
18:03:00.916415, 441.075, 4155
18:03:00.916437, 441.0775, 4190
18:03:00.916456, 441.08, 4184
18:03:00.916476, 441.0825, 4161
18:03:00.916842, 441.085, 4177
18:03:00.916864, 441.0875, 4152
18:03:00.916879, 441.09, 4147
18:03:00.916894, 441.0925, 4095
18:03:00.920731, 441.095, 4164
18:03:00.920784, 441.0975, 4161
18:03:00.920830, 441.1, 4154
18:03:00.920859, 441.1025, 4165
18:03:00.930018, 441.105, 4181
18:03:00.930086, 441.1075, 4171
18:03:00.930120, 441.11, 4156
18:03:00.930152, 441.1125, 4180
18:03:00.950918, 441.115, 4159
18:03:00.951014, 441.1175, 4138
18:03:00.951063, 441.12, 4163
18:03:00.951097, 441.1225, 4175
18:03:00.955703, 441.125, 4161
18:03:00.955731, 441.1275, 4113
18:03:00.955748, 441.13, 4163
18:03:00.955764, 441.1325, 4140
18:03:00.983099, 441.135, 4141
18:03:00.983220, 441.1375, 4161
18:03:00.983311, 441.14, 4164
18:03:00.983433, 441.1425, 4150
18:03:00.984488, 441.145, 4108
18:03:00.984563, 441.1475, 4151
18:03:00.984617, 441.15, 4128
18:03:00.984668, 441.1525, 4131
18:03:00.985627, 441.155, 4122
18:03:00.985698, 441.1575, 4120
18:03:00.985750, 441.16, 4096
18:03:00.985800, 441.1625, 4046
18:03:00.990513, 441.165, 4093
18:03:00.990562, 441.1675, 4116
18:03:00.990587, 441.17, 4138
18:03:00.990610, 441.1725, 4150
18:03:01.014547, 441.175, 4146
18:03:01.014637, 441.1775, 4153
18:03:01.014660, 441.18, 4111
18:03:01.014680, 441.1825, 4162
18:03:01.016933, 441.185, 4195
18:03:01.016994, 441.1875, 4181
18:03:01.017024, 441.19, 4193
18:03:01.017093, 441.1925, 4202
18:03:01.017127, 441.195, 4200
18:03:01.025699, 441.1975, 4179
18:03:01.025759, 441.2, 4207
18:03:01.025791, 441.2025, 4180
18:03:01.025820, 441.205, 4182
18:03:01.048335, 441.2075, 4182
18:03:01.048459, 441.21, 4195
18:03:01.048498, 441.2125, 4186
18:03:01.048534, 441.215, 4146
18:03:01.049129, 441.2175, 4183
18:03:01.049178, 441.22, 4192
18:03:01.049216, 441.2225, 4145
18:03:01.049253, 441.225, 4164
18:03:01.051769, 441.2275, 4198
18:03:01.051806, 441.23, 4170
18:03:01.051827, 441.2325, 4033
18:03:01.051845, 441.235, 4205
18:03:01.083888, 441.2375, 4206
18:03:01.083957, 441.24, 4157
18:03:01.083981, 441.2425, 4169
18:03:01.084001, 441.245, 4195
18:03:01.088989, 441.2475, 4197
18:03:01.089037, 441.25, 4239
18:03:01.089064, 441.2525, 4338
18:03:01.089089, 441.255, 4382
18:03:01.089114, 441.2575, 4418
18:03:01.090221, 441.26, 4455
18:03:01.090275, 441.2625, 4472
18:03:01.090315, 441.265, 4426
18:03:01.090388, 441.2675, 4232
18:03:01.096381, 441.27, 4063
18:03:01.096438, 441.2725, 3805
18:03:01.096468, 441.275, 3462
18:03:01.096498, 441.2775, 3207
18:03:01.118498, 441.28, 2817
18:03:01.118582, 441.2825, 2291
18:03:01.118621, 441.285, 1844
18:03:01.118654, 441.2875, 1665
18:03:01.119213, 441.29, 1725
18:03:01.119249, 441.2925, 1971
18:03:01.119274, 441.295, 2632
18:03:01.119298, 441.2975, 3563
18:03:01.148026, 441.3, 4385
18:03:01.148127, 441.3025, 4686
18:03:01.148159, 441.305, 5039
18:03:01.148187, 441.3075, 5008
18:03:01.148693, 441.31, 4847
18:03:01.148741, 441.3125, 4715
18:03:01.148762, 441.315, 4617
18:03:01.148783, 441.3175, 4568
18:03:01.159391, 441.32, 4511
18:03:01.159442, 441.3225, 4506
18:03:01.159466, 441.325, 4502
18:03:01.159489, 441.3275, 4475
18:03:01.160511, 441.33, 4509
18:03:01.160544, 441.3325, 4527
18:03:01.160567, 441.335, 4513
18:03:01.160589, 441.3375, 4446
18:03:01.165643, 441.34, 4516
18:03:01.165705, 441.3425, 4499
18:03:01.165723, 441.345, 4470
18:03:01.165741, 441.3475, 4465
18:03:01.186763, 441.35, 4475
18:03:01.186887, 441.3525, 4453
18:03:01.186960, 441.355, 4388
18:03:01.187011, 441.3575, 4441
18:03:01.191967, 441.36, 4414
18:03:01.192029, 441.3625, 4415
18:03:01.192068, 441.365, 4427
18:03:01.192105, 441.3675, 4403
18:03:01.215320, 441.37, 4394
18:03:01.215411, 441.3725, 4370
18:03:01.215436, 441.375, 4372
18:03:01.215455, 441.3775, 4366
18:03:01.215475, 441.38, 4339
18:03:01.215800, 441.3825, 4348
18:03:01.215828, 441.385, 4348
18:03:01.215843, 441.3875, 4346
18:03:01.215858, 441.39, 4310
18:03:01.229521, 441.3925, 4327
18:03:01.229573, 441.395, 4304
18:03:01.229594, 441.3975, 4292
18:03:01.229612, 441.4, 4294
18:03:01.231251, 441.4025, 4270
18:03:01.231359, 441.405, 4268
18:03:01.231415, 441.4075, 4289
18:03:01.231439, 441.41, 4279
18:03:01.256491, 441.4125, 4272
18:03:01.256583, 441.415, 4229
18:03:01.256615, 441.4175, 4228
18:03:01.256640, 441.42, 4279
18:03:01.257088, 441.4225, 4265
18:03:01.257117, 441.425, 4208
18:03:01.257136, 441.4275, 4249
18:03:01.257155, 441.43, 4248
18:03:01.262211, 441.4325, 4250
18:03:01.262346, 441.435, 4252
18:03:01.262430, 441.4375, 4246
18:03:01.262491, 441.44, 4239
18:03:01.286567, 441.4425, 4199
18:03:01.286651, 441.445, 4256
18:03:01.286688, 441.4475, 4225
18:03:01.286718, 441.45, 4199
18:03:01.287419, 441.4525, 4214
18:03:01.287470, 441.455, 4225
18:03:01.287507, 441.4575, 4200
18:03:01.287541, 441.46, 4129
18:03:01.287575, 441.4625, 4217
18:03:01.297105, 441.465, 4187
18:03:01.297163, 441.4675, 4171
18:03:01.297185, 441.47, 4198
18:03:01.297205, 441.4725, 4187
18:03:01.315170, 441.475, 4203
18:03:01.315287, 441.4775, 4177
18:03:01.315364, 441.48, 4203
18:03:01.315404, 441.4825, 4201
18:03:01.316069, 441.485, 4176
18:03:01.316123, 441.4875, 4158
18:03:01.316152, 441.49, 4185
18:03:01.316178, 441.4925, 4170
18:03:01.323112, 441.495, 4136
18:03:01.323180, 441.4975, 4193
18:03:01.323211, 441.5, 4186
18:03:01.323241, 441.5025, 4157
18:03:01.348646, 441.505, 4197
18:03:01.348795, 441.5075, 4174
18:03:01.348840, 441.51, 4154
18:03:01.348870, 441.5125, 4125
18:03:01.349435, 441.515, 4175
18:03:01.349493, 441.5175, 4164
18:03:01.349562, 441.52, 4160
18:03:01.349588, 441.5225, 4180
18:03:01.349961, 441.525, 4175
18:03:01.350005, 441.5275, 4165
18:03:01.350021, 441.53, 4119
18:03:01.350036, 441.5325, 4160
18:03:01.382210, 441.535, 4160
18:03:01.382284, 441.5375, 4122
18:03:01.382309, 441.54, 4133
18:03:01.382327, 441.5425, 4134
18:03:01.382364, 441.545, 4126
18:03:01.382808, 441.5475, 4132
18:03:01.382857, 441.55, 4164
18:03:01.382875, 441.5525, 4162
18:03:01.382890, 441.555, 4122
18:03:01.384112, 441.5575, 4121
18:03:01.384164, 441.56, 4113
18:03:01.384182, 441.5625, 4114
18:03:01.384197, 441.565, 4088
18:03:01.392958, 441.5675, 4143
18:03:01.393004, 441.57, 4139
18:03:01.393029, 441.5725, 4145
18:03:01.393052, 441.575, 4149
18:03:01.418447, 441.5775, 4149
18:03:01.418537, 441.58, 4144
18:03:01.418575, 441.5825, 4074
18:03:01.418605, 441.585, 4108
18:03:01.419236, 441.5875, 4115
18:03:01.419279, 441.59, 4093
18:03:01.419308, 441.5925, 4113
18:03:01.419336, 441.595, 4119
18:03:01.449981, 441.5975, 4155
18:03:01.450080, 441.6, 4131
18:03:01.450109, 441.6025, 4169
18:03:01.450132, 441.605, 4189
18:03:01.450158, 441.6075, 4173
18:03:01.450674, 441.61, 4178
18:03:01.450724, 441.6125, 4176
18:03:01.450745, 441.615, 4188
18:03:01.450765, 441.6175, 4184
18:03:01.451140, 441.62, 4198
18:03:01.451176, 441.6225, 4193
18:03:01.451195, 441.625, 4180
18:03:01.451214, 441.6275, 4213
18:03:01.454240, 441.63, 4232
18:03:01.454268, 441.6325, 4241
18:03:01.454288, 441.635, 4207
18:03:01.454307, 441.6375, 4241
18:03:01.462789, 441.64, 4245
18:03:01.462813, 441.6425, 4228
18:03:01.462828, 441.645, 4238
18:03:01.462848, 441.6475, 4252
18:03:01.483271, 441.65, 4240
18:03:01.483362, 441.6525, 4201
18:03:01.483440, 441.655, 4250
18:03:01.483472, 441.6575, 4241
18:03:01.489367, 441.66, 4210
18:03:01.489426, 441.6625, 4234
18:03:01.489460, 441.665, 4231
18:03:01.489492, 441.6675, 4234
18:03:01.516232, 441.67, 4191
18:03:01.516340, 441.6725, 4232
18:03:01.516375, 441.675, 4222
18:03:01.516405, 441.6775, 4219
18:03:01.516973, 441.68, 4231
18:03:01.517026, 441.6825, 4225
18:03:01.517049, 441.685, 4205
18:03:01.517072, 441.6875, 4192
18:03:01.517474, 441.69, 4221
18:03:01.517518, 441.6925, 4216
18:03:01.517542, 441.695, 4203
18:03:01.517565, 441.6975, 4215
18:03:01.524054, 441.7, 4246
18:03:01.524103, 441.7025, 4247
18:03:01.524129, 441.705, 4153
18:03:01.524146, 441.7075, 4181
18:03:01.524161, 441.71, 4150
18:03:01.554761, 441.7125, 4119
18:03:01.554832, 441.715, 4172
18:03:01.554891, 441.7175, 4182
18:03:01.554926, 441.72, 4175
18:03:01.555489, 441.7225, 4163
18:03:01.555525, 441.725, 4184
18:03:01.555550, 441.7275, 4175
18:03:01.555574, 441.73, 4141
18:03:01.559586, 441.7325, 4147
18:03:01.559622, 441.735, 4152
18:03:01.559647, 441.7375, 4149
18:03:01.559672, 441.74, 3989
18:03:01.584336, 441.7425, 4174
18:03:01.584484, 441.745, 4188
18:03:01.584540, 441.7475, 4170
18:03:01.584581, 441.75, 4190
18:03:01.585154, 441.7525, 4206
18:03:01.585191, 441.755, 4192
18:03:01.585212, 441.7575, 4144
18:03:01.585232, 441.76, 4169
18:03:01.594325, 441.7625, 4171
18:03:01.594382, 441.765, 4178
18:03:01.594405, 441.7675, 4193
18:03:01.594427, 441.77, 4192
18:03:01.594448, 441.7725, 4177
18:03:01.620501, 441.775, 4161
18:03:01.620625, 441.7775, 4189
18:03:01.620680, 441.78, 4183
18:03:01.620764, 441.7825, 4166
18:03:01.623283, 441.785, 4166
18:03:01.623364, 441.7875, 4190
18:03:01.623419, 441.79, 4171
18:03:01.623471, 441.7925, 4139
18:03:01.624417, 441.795, 4189
18:03:01.624484, 441.7975, 4187
18:03:01.624537, 441.8, 4140
18:03:01.624588, 441.8025, 4161
18:03:01.629035, 441.805, 4179
18:03:01.629058, 441.8075, 4160
18:03:01.629073, 441.81, 4007
18:03:01.629086, 441.8125, 4192
18:03:01.653426, 441.815, 4220
18:03:01.653513, 441.8175, 4181
18:03:01.653539, 441.82, 4181
18:03:01.653559, 441.8225, 4202
18:03:01.655796, 441.825, 4175
18:03:01.655857, 441.8275, 4145
18:03:01.655893, 441.83, 4207
18:03:01.655927, 441.8325, 4188
18:03:01.683761, 441.835, 4178
18:03:01.683929, 441.8375, 4201
18:03:01.683976, 441.84, 4189
18:03:01.684000, 441.8425, 4197
18:03:01.684396, 441.845, 4139
18:03:01.684468, 441.8475, 4185
18:03:01.684489, 441.85, 4188
18:03:01.684505, 441.8525, 4161
18:03:01.684768, 441.855, 4175
18:03:01.684792, 441.8575, 4187
18:03:01.684807, 441.86, 4159
18:03:01.684821, 441.8625, 4015
18:03:01.684836, 441.865, 4176
18:03:01.691147, 441.8675, 4172
18:03:01.691239, 441.87, 4163
18:03:01.691283, 441.8725, 4162
18:03:01.691323, 441.875, 4180
18:03:01.717223, 441.8775, 4185
18:03:01.717327, 441.88, 4134
18:03:01.717361, 441.8825, 4188
18:03:01.717393, 441.885, 4180
18:03:01.717926, 441.8875, 4170
18:03:01.717971, 441.89, 4200
18:03:01.717994, 441.8925, 4176
18:03:01.718016, 441.895, 4176
18:03:01.754912, 441.8975, 4144
18:03:01.755014, 441.9, 4168
18:03:01.755073, 441.9025, 4165
18:03:01.755126, 441.905, 4141
18:03:01.755802, 441.9075, 4175
18:03:01.755849, 441.91, 4173
18:03:01.755881, 441.9125, 4156
18:03:01.755910, 441.915, 4127
18:03:01.756433, 441.9175, 4183
18:03:01.756472, 441.92, 4198
18:03:01.756502, 441.9225, 4175
18:03:01.756531, 441.925, 4181
18:03:01.760676, 441.9275, 4214
18:03:01.760700, 441.93, 4185
18:03:01.760715, 441.9325, 4149
18:03:01.760729, 441.935, 4206
18:03:01.760743, 441.9375, 4197
18:03:01.789184, 441.94, 4173
18:03:01.789319, 441.9425, 4178
18:03:01.789383, 441.945, 4165
18:03:01.789431, 441.9475, 4154
18:03:01.790179, 441.95, 4129
18:03:01.790230, 441.9525, 4174
18:03:01.790271, 441.955, 4153
18:03:01.790310, 441.9575, 4161
18:03:01.791005, 441.96, 4184
18:03:01.791052, 441.9625, 4169
18:03:01.791092, 441.965, 4154
18:03:01.791129, 441.9675, 4016
18:03:01.795612, 441.97, 4173
18:03:01.795659, 441.9725, 4174
18:03:01.795686, 441.975, 4168
18:03:01.795712, 441.9775, 4161
18:03:01.817707, 441.98, 4178
18:03:01.817791, 441.9825, 4192
18:03:01.817812, 441.985, 4154
18:03:01.817830, 441.9875, 4190
18:03:01.818246, 441.99, 4191
18:03:01.818279, 441.9925, 4179
18:03:01.818294, 441.995, 4203
18:03:01.818308, 441.9975, 4191
18:03:01.831011, 442.0, 4201
18:03:01.831072, 442.0025, 4159
18:03:01.831092, 442.005, 4201
18:03:01.831108, 442.0075, 4208
18:03:01.851313, 442.01, 4179
18:03:01.851435, 442.0125, 4190
18:03:01.851480, 442.015, 4195
18:03:01.851514, 442.0175, 4187
18:03:01.852160, 442.02, 4137
18:03:01.852216, 442.0225, 4182
18:03:01.852244, 442.025, 4189
18:03:01.852272, 442.0275, 4178
18:03:01.856682, 442.03, 4202
18:03:01.856717, 442.0325, 4218
18:03:01.856732, 442.035, 4179
18:03:01.856746, 442.0375, 4151
18:03:01.888784, 442.04, 4180
18:03:01.888855, 442.0425, 4183
18:03:01.888880, 442.045, 4143
18:03:01.888901, 442.0475, 4166
18:03:01.888968, 442.05, 4179
18:03:01.889311, 442.0525, 4187
18:03:01.889335, 442.055, 4146
18:03:01.889351, 442.0575, 4147
18:03:01.889367, 442.06, 4133
18:03:01.919508, 442.0625, 4141
18:03:01.919693, 442.065, 4134
18:03:01.919761, 442.0675, 4161
18:03:01.919797, 442.07, 4141
18:03:01.920441, 442.0725, 3999
18:03:01.920496, 442.075, 4177
18:03:01.920525, 442.0775, 4168
18:03:01.920549, 442.08, 4154
18:03:01.920958, 442.0825, 4170
18:03:01.920990, 442.085, 4174
18:03:01.921014, 442.0875, 4179
18:03:01.921037, 442.09, 4006
18:03:01.921437, 442.0925, 4166
18:03:01.921466, 442.095, 4158
18:03:01.921489, 442.0975, 4138
18:03:01.921511, 442.1, 4125
18:03:01.926700, 442.1025, 4139
18:03:01.926737, 442.105, 4116
18:03:01.926761, 442.1075, 4089
18:03:01.926783, 442.11, 4157
18:03:01.955677, 442.1125, 4138
18:03:01.955759, 442.115, 4139
18:03:01.955793, 442.1175, 4165
18:03:01.955867, 442.12, 4133
18:03:01.956648, 442.1225, 4156
18:03:01.956705, 442.125, 4136
18:03:01.956747, 442.1275, 4155
18:03:01.956788, 442.13, 4165
18:03:01.956828, 442.1325, 4158
18:03:01.987875, 442.135, 4161
18:03:01.987932, 442.1375, 4174
18:03:01.987955, 442.14, 4162
18:03:01.987974, 442.1425, 4130
18:03:01.988322, 442.145, 4195
18:03:01.988351, 442.1475, 4181
18:03:01.988365, 442.15, 4176
18:03:01.988379, 442.1525, 4184
18:03:01.988621, 442.155, 4165
18:03:01.988639, 442.1575, 4160
18:03:01.988653, 442.16, 4026
18:03:01.988667, 442.1625, 4183
18:03:01.988908, 442.165, 4153
18:03:01.988926, 442.1675, 4112
18:03:01.988940, 442.17, 4153
18:03:01.988954, 442.1725, 4158
18:03:02.020012, 442.175, 4164
18:03:02.020103, 442.1775, 4092
18:03:02.020140, 442.18, 4142
18:03:02.020172, 442.1825, 4140
18:03:02.020744, 442.185, 4124
18:03:02.020788, 442.1875, 4149
18:03:02.020812, 442.19, 4146
18:03:02.020835, 442.1925, 4157
18:03:02.020858, 442.195, 4140
18:03:02.022980, 442.1975, 4165
18:03:02.023005, 442.2, 4166
18:03:02.023020, 442.2025, 4165
18:03:02.023034, 442.205, 4186
18:03:02.054582, 442.2075, 4187
18:03:02.054646, 442.21, 4195
18:03:02.054669, 442.2125, 4136
18:03:02.054689, 442.215, 4205
18:03:02.055085, 442.2175, 4223
18:03:02.055109, 442.22, 4194
18:03:02.055125, 442.2225, 4212
18:03:02.055140, 442.225, 4224
18:03:02.057806, 442.2275, 4185
18:03:02.057828, 442.23, 4042
18:03:02.057844, 442.2325, 4201
18:03:02.057858, 442.235, 4188
18:03:02.068172, 442.2375, 4187
18:03:02.068235, 442.24, 4198
18:03:02.068265, 442.2425, 4187
18:03:02.068289, 442.245, 4187
18:03:02.089166, 442.2475, 4152
18:03:02.089260, 442.25, 4193
18:03:02.089295, 442.2525, 4185
18:03:02.089323, 442.255, 4180
18:03:02.089856, 442.2575, 4181
18:03:02.089893, 442.26, 4187
18:03:02.089917, 442.2625, 4197
18:03:02.089938, 442.265, 4165
18:03:02.093300, 442.2675, 4236
18:03:02.093363, 442.27, 4272
18:03:02.093415, 442.2725, 4340
18:03:02.093462, 442.275, 4399
18:03:02.093516, 442.2775, 4437
18:03:02.101951, 442.28, 4468
18:03:02.102368, 442.2825, 4443
18:03:02.102406, 442.285, 4435
18:03:02.102426, 442.2875, 4307
18:03:02.123068, 442.29, 4094
18:03:02.123168, 442.2925, 3850
18:03:02.123221, 442.295, 3533
18:03:02.123282, 442.2975, 3230
18:03:02.128503, 442.3, 2802
18:03:02.128600, 442.3025, 2318
18:03:02.128652, 442.305, 1858
18:03:02.128699, 442.3075, 1607
18:03:02.153831, 442.31, 1605
18:03:02.153980, 442.3125, 1832
18:03:02.154006, 442.315, 2425
18:03:02.154026, 442.3175, 3321
18:03:02.154492, 442.32, 4337
18:03:02.154534, 442.3225, 4865
18:03:02.154557, 442.325, 5043
18:03:02.154577, 442.3275, 5044
18:03:02.154902, 442.33, 4904
18:03:02.154930, 442.3325, 4723
18:03:02.154944, 442.335, 4556
18:03:02.154957, 442.3375, 4567
18:03:02.190375, 442.34, 4541
18:03:02.190472, 442.3425, 4499
18:03:02.190507, 442.345, 4474
18:03:02.190538, 442.3475, 4504
18:03:02.190569, 442.35, 4490
18:03:02.191125, 442.3525, 4476
18:03:02.191154, 442.355, 4499
18:03:02.191169, 442.3575, 4491
18:03:02.191183, 442.36, 4492
18:03:02.200664, 442.3625, 4501
18:03:02.200718, 442.365, 4498
18:03:02.200755, 442.3675, 4479
18:03:02.200785, 442.37, 4428
18:03:02.201890, 442.3725, 4464
18:03:02.201930, 442.375, 4441
18:03:02.201948, 442.3775, 4420
18:03:02.201967, 442.38, 4419
18:03:02.224728, 442.3825, 4421
18:03:02.224841, 442.385, 4412
18:03:02.224896, 442.3875, 4249
18:03:02.224945, 442.39, 4380
18:03:02.225765, 442.3925, 4375
18:03:02.225815, 442.395, 4367
18:03:02.225857, 442.3975, 4365
18:03:02.225896, 442.4, 4344
18:03:02.233072, 442.4025, 4349
18:03:02.233106, 442.405, 4330
18:03:02.233132, 442.4075, 4350
18:03:02.233156, 442.41, 4323
18:03:02.233180, 442.4125, 4299
18:03:02.254710, 442.415, 4315
18:03:02.254791, 442.4175, 4315
18:03:02.254829, 442.42, 4312
18:03:02.255375, 442.4225, 4243
18:03:02.255420, 442.425, 4302
18:03:02.255441, 442.4275, 4273
18:03:02.255461, 442.43, 4254
18:03:02.259837, 442.4325, 4263
18:03:02.259907, 442.435, 4291
18:03:02.259950, 442.4375, 4298
18:03:02.259991, 442.44, 4213
18:03:02.260031, 442.4425, 4250
18:03:02.268692, 442.445, 4238
18:03:02.268737, 442.4475, 4232
18:03:02.268757, 442.45, 4248
18:03:02.268775, 442.4525, 4248
18:03:02.290419, 442.455, 4231
18:03:02.290523, 442.4575, 4187
18:03:02.290565, 442.46, 4243
18:03:02.290625, 442.4625, 4236
18:03:02.294460, 442.465, 4211
18:03:02.294550, 442.4675, 4212
18:03:02.294627, 442.47, 4222
18:03:02.294674, 442.4725, 4197
18:03:02.303091, 442.475, 4158
18:03:02.303797, 442.4775, 4198
18:03:02.303834, 442.48, 4197
18:03:02.303853, 442.4825, 4182
18:03:02.321017, 442.485, 4215
18:03:02.321119, 442.4875, 4206
18:03:02.321166, 442.49, 4228
18:03:02.321241, 442.4925, 4167
18:03:02.321699, 442.495, 4210
18:03:02.321749, 442.4975, 4212
18:03:02.321773, 442.5, 4174
18:03:02.321795, 442.5025, 4205
18:03:02.355928, 442.505, 4193
18:03:02.356000, 442.5075, 4186
18:03:02.356022, 442.51, 4160
18:03:02.356043, 442.5125, 4209
18:03:02.356381, 442.515, 4223
18:03:02.356404, 442.5175, 4205
18:03:02.356418, 442.52, 4213
18:03:02.356433, 442.5225, 4220
18:03:02.356687, 442.525, 4215
18:03:02.356708, 442.5275, 4054
18:03:02.356722, 442.53, 4222
18:03:02.356737, 442.5325, 4205
18:03:02.356750, 442.535, 4206
18:03:02.364682, 442.5375, 4205
18:03:02.364762, 442.54, 4200
18:03:02.364825, 442.5425, 4192
18:03:02.364908, 442.545, 4165
18:03:02.391259, 442.5475, 4213
18:03:02.391414, 442.55, 4189
18:03:02.391472, 442.5525, 4185
18:03:02.391518, 442.555, 4183
18:03:02.392548, 442.5575, 4158
18:03:02.392627, 442.56, 4196
18:03:02.392683, 442.5625, 4147
18:03:02.392733, 442.565, 4199
18:03:02.393636, 442.5675, 4183
18:03:02.393703, 442.57, 4154
18:03:02.393755, 442.5725, 4162
18:03:02.393806, 442.575, 4206
18:03:02.424349, 442.5775, 4198
18:03:02.424467, 442.58, 4149
18:03:02.424507, 442.5825, 4178
18:03:02.424538, 442.585, 4152
18:03:02.425084, 442.5875, 4128
18:03:02.425119, 442.59, 4126
18:03:02.425143, 442.5925, 4109
18:03:02.425166, 442.595, 4108
18:03:02.425797, 442.5975, 4076
18:03:02.425841, 442.6, 4107
18:03:02.425877, 442.6025, 4114
18:03:02.425914, 442.605, 4101
18:03:02.434267, 442.6075, 4108
18:03:02.434315, 442.61, 4143
18:03:02.434344, 442.6125, 4129
18:03:02.434372, 442.615, 4089
18:03:02.456765, 442.6175, 4129
18:03:02.456886, 442.62, 4144
18:03:02.456982, 442.6225, 4121
18:03:02.457025, 442.625, 4139
18:03:02.457643, 442.6275, 4154
18:03:02.457688, 442.63, 4162
18:03:02.457718, 442.6325, 4174
18:03:02.457745, 442.635, 4190
18:03:02.457773, 442.6375, 4178
18:03:02.470225, 442.64, 4170
18:03:02.470309, 442.6425, 4205
18:03:02.470333, 442.645, 4256
18:03:02.470350, 442.6475, 4253
18:03:02.488056, 442.65, 4243
18:03:02.488172, 442.6525, 4253
18:03:02.488208, 442.655, 4228
18:03:02.488260, 442.6575, 4236
18:03:02.488779, 442.66, 4239
18:03:02.488833, 442.6625, 4199
18:03:02.488856, 442.665, 4213
18:03:02.488876, 442.6675, 4186
18:03:02.495548, 442.67, 4242
18:03:02.495586, 442.6725, 4234
18:03:02.495601, 442.675, 4220
18:03:02.495614, 442.6775, 4232
18:03:02.505216, 442.68, 4226
18:03:02.505282, 442.6825, 4207
18:03:02.505302, 442.685, 4155
18:03:02.505330, 442.6875, 4206
18:03:02.527127, 442.69, 4206
18:03:02.527188, 442.6925, 4208
18:03:02.527210, 442.695, 4202
18:03:02.527254, 442.6975, 4207
18:03:02.530541, 442.7, 4188
18:03:02.530567, 442.7025, 4194
18:03:02.530582, 442.705, 4202
18:03:02.530595, 442.7075, 4205
18:03:02.530609, 442.71, 4195
18:03:02.559943, 442.7125, 4191
18:03:02.560049, 442.715, 4188
18:03:02.560118, 442.7175, 4190
18:03:02.560204, 442.72, 4152
18:03:02.561074, 442.7225, 4200
18:03:02.561131, 442.725, 4204
18:03:02.561179, 442.7275, 4173
18:03:02.561222, 442.73, 4192
18:03:02.561949, 442.7325, 4179
18:03:02.561999, 442.735, 4176
18:03:02.562043, 442.7375, 4127
18:03:02.562087, 442.74, 4196
18:03:02.565401, 442.7425, 4184
18:03:02.565428, 442.745, 4151
18:03:02.565448, 442.7475, 4172
18:03:02.565469, 442.75, 4179
18:03:02.592986, 442.7525, 4168
18:03:02.593092, 442.755, 4122
18:03:02.593127, 442.7575, 4184
18:03:02.593154, 442.76, 4172
18:03:02.594036, 442.7625, 4141
18:03:02.594094, 442.765, 4180
18:03:02.594136, 442.7675, 4171
18:03:02.594176, 442.77, 4172
18:03:02.600289, 442.7725, 4132
18:03:02.600313, 442.775, 4189
18:03:02.600328, 442.7775, 4182
18:03:02.600342, 442.78, 4172
18:03:02.623689, 442.7825, 4191
18:03:02.623813, 442.785, 4190
18:03:02.623872, 442.7875, 4169
18:03:02.623904, 442.79, 4143
18:03:02.623934, 442.7925, 4216
18:03:02.624438, 442.795, 4180
18:03:02.624478, 442.7975, 4177
18:03:02.624502, 442.8, 4190
18:03:02.624525, 442.8025, 4199
18:03:02.635405, 442.805, 4197
18:03:02.635437, 442.8075, 4038
18:03:02.635452, 442.81, 4191
18:03:02.635466, 442.8125, 4173
18:03:02.655688, 442.815, 4148
18:03:02.655770, 442.8175, 4174
18:03:02.655798, 442.82, 4186
18:03:02.655820, 442.8225, 4174
18:03:02.656194, 442.825, 4137
18:03:02.656227, 442.8275, 4185
18:03:02.656243, 442.83, 4179
18:03:02.656294, 442.8325, 4161
18:03:02.661970, 442.835, 4160
18:03:02.662015, 442.8375, 4188
18:03:02.662032, 442.84, 4168
18:03:02.662047, 442.8425, 4132
18:03:02.671141, 442.845, 4178
18:03:02.671192, 442.8475, 4162
18:03:02.671212, 442.85, 4162
18:03:02.671231, 442.8525, 4176
18:03:02.692403, 442.855, 4176
18:03:02.692490, 442.8575, 4167
18:03:02.692535, 442.86, 4118
18:03:02.692567, 442.8625, 4185
18:03:02.696727, 442.865, 4155
18:03:02.696752, 442.8675, 4154
18:03:02.696768, 442.87, 4185
18:03:02.696783, 442.8725, 4191
18:03:02.725337, 442.875, 4174
18:03:02.725429, 442.8775, 4129
18:03:02.725466, 442.88, 4155
18:03:02.725497, 442.8825, 4149
18:03:02.725526, 442.885, 4139
18:03:02.736034, 442.8875, 4162
18:03:02.736061, 442.89, 4165
18:03:02.736075, 442.8925, 4167
18:03:02.736089, 442.895, 4123
18:03:02.757275, 442.8975, 4158
18:03:02.757394, 442.9, 4172
18:03:02.757435, 442.9025, 4157
18:03:02.757510, 442.905, 4158
18:03:02.757948, 442.9075, 4154
18:03:02.757977, 442.91, 4158
18:03:02.757992, 442.9125, 4138
18:03:02.758006, 442.915, 4151
18:03:02.758255, 442.9175, 4147
18:03:02.758278, 442.92, 4142
18:03:02.758292, 442.9225, 4104
18:03:02.758306, 442.925, 4193
18:03:02.758547, 442.9275, 4184
18:03:02.758565, 442.93, 4140
18:03:02.758579, 442.9325, 4158
18:03:02.758593, 442.935, 4164
18:03:02.767157, 442.9375, 4141
18:03:02.767191, 442.94, 4145
18:03:02.767206, 442.9425, 4158
18:03:02.767220, 442.945, 4156
18:03:02.797463, 442.9475, 4097
18:03:02.797565, 442.95, 4146
18:03:02.797609, 442.9525, 4145
18:03:02.797627, 442.955, 4125
18:03:02.797880, 442.9575, 4142
18:03:02.797900, 442.96, 4159
18:03:02.797914, 442.9625, 4166
18:03:02.797928, 442.965, 4123
18:03:02.798170, 442.9675, 4179
18:03:02.798188, 442.97, 4183
18:03:02.798201, 442.9725, 4168
18:03:02.798215, 442.975, 4173
18:03:02.798228, 442.9775, 4189
18:03:02.801983, 442.98, 4173
18:03:02.802036, 442.9825, 4126
18:03:02.802070, 442.985, 4164
18:03:02.802101, 442.9875, 4170
18:03:02.825428, 442.99, 4154
18:03:02.825499, 442.9925, 4154
18:03:02.825530, 442.995, 4161
18:03:02.825548, 442.9975, 4159
18:03:02.827928, 443.0, 4144
18:03:02.827951, 443.0025, 4162
18:03:02.827966, 443.005, 4161
18:03:02.827980, 443.0075, 4142
18:03:02.837886, 443.01, 4161
18:03:02.837936, 443.0125, 4167
18:03:02.837959, 443.015, 4153
18:03:02.838028, 443.0175, 4119
18:03:02.863585, 443.02, 4157
18:03:02.863677, 443.0225, 4154
18:03:02.863713, 443.025, 4139
18:03:02.863743, 443.0275, 4159
18:03:02.864190, 443.03, 4173
18:03:02.864222, 443.0325, 4163
18:03:02.864246, 443.035, 4121
18:03:02.864271, 443.0375, 4170
18:03:02.890377, 443.04, 4159
18:03:02.890502, 443.0425, 4117
18:03:02.890568, 443.045, 4160
18:03:02.890608, 443.0475, 4159
18:03:02.891283, 443.05, 4140
18:03:02.891335, 443.0525, 4129
18:03:02.891359, 443.055, 4150
18:03:02.891381, 443.0575, 4153
18:03:02.891403, 443.06, 4129
18:03:02.891797, 443.0625, 4148
18:03:02.891832, 443.065, 4150
18:03:02.891855, 443.0675, 4136
18:03:02.891877, 443.07, 4118
18:03:02.898528, 443.0725, 4155
18:03:02.898627, 443.075, 4148
18:03:02.898683, 443.0775, 4134
18:03:02.898736, 443.08, 4151
18:03:02.923338, 443.0825, 4152
18:03:02.923456, 443.085, 4169
18:03:02.923491, 443.0875, 4119
18:03:02.923520, 443.09, 4171
18:03:02.923989, 443.0925, 4166
18:03:02.924035, 443.095, 4147
18:03:02.924062, 443.0975, 4160
18:03:02.924087, 443.1, 4148
18:03:02.958408, 443.1025, 4134
18:03:02.958482, 443.105, 3985
18:03:02.958515, 443.1075, 4168
18:03:02.958538, 443.11, 4156
18:03:02.959005, 443.1125, 4140
18:03:02.959050, 443.115, 4155
18:03:02.959075, 443.1175, 4152
18:03:02.959097, 443.12, 4143
18:03:02.959537, 443.1225, 4121
18:03:02.959587, 443.125, 4160
18:03:02.959613, 443.1275, 4180
18:03:02.959635, 443.13, 4158
18:03:02.960039, 443.1325, 4138
18:03:02.960068, 443.135, 4160
18:03:02.960091, 443.1375, 4140
18:03:02.960113, 443.14, 4100
18:03:02.960137, 443.1425, 4154
18:03:02.968474, 443.145, 4154
18:03:02.968584, 443.1475, 4135
18:03:02.968683, 443.15, 4146
18:03:02.968758, 443.1525, 4160
18:03:02.994514, 443.155, 4151
18:03:02.994589, 443.1575, 4117
18:03:02.994645, 443.16, 4164
18:03:02.994669, 443.1625, 4146
18:03:02.994996, 443.165, 4149
18:03:02.995019, 443.1675, 4140
18:03:02.995034, 443.17, 4153
18:03:02.995049, 443.1725, 4153
18:03:03.028736, 443.175, 4118
18:03:03.028821, 443.1775, 4137
18:03:03.028851, 443.18, 4150
18:03:03.028875, 443.1825, 4152
18:03:03.029277, 443.185, 4139
18:03:03.029306, 443.1875, 4134
18:03:03.029324, 443.19, 4135
18:03:03.029341, 443.1925, 4083
18:03:03.029632, 443.195, 4161
18:03:03.029654, 443.1975, 4180
18:03:03.029671, 443.2, 4145
18:03:03.029687, 443.2025, 4158
18:03:03.029975, 443.205, 4167
18:03:03.029996, 443.2075, 4169
18:03:03.030013, 443.21, 4112
18:03:03.030029, 443.2125, 4158
18:03:03.038727, 443.215, 4146
18:03:03.038782, 443.2175, 4146
18:03:03.038825, 443.22, 4179
18:03:03.038853, 443.2225, 4159
18:03:03.059321, 443.225, 4175
18:03:03.059416, 443.2275, 4119
18:03:03.059457, 443.23, 4161
18:03:03.059493, 443.2325, 4155
18:03:03.059530, 443.235, 4154
18:03:03.064650, 443.2375, 4158
18:03:03.064691, 443.24, 4165
18:03:03.064721, 443.2425, 4183
18:03:03.064750, 443.245, 4142
18:03:03.091655, 443.2475, 4185
18:03:03.091795, 443.25, 4155
18:03:03.091833, 443.2525, 4154
18:03:03.091862, 443.255, 4149
18:03:03.092312, 443.2575, 4150
18:03:03.092366, 443.26, 4171
18:03:03.092388, 443.2625, 4128
18:03:03.092408, 443.265, 4175
18:03:03.099384, 443.2675, 4171
18:03:03.099447, 443.27, 4166
18:03:03.099487, 443.2725, 4195
18:03:03.099508, 443.275, 4164
18:03:03.108685, 443.2775, 4161
18:03:03.108738, 443.28, 4169
18:03:03.108767, 443.2825, 4167
18:03:03.108785, 443.285, 4160
18:03:03.136321, 443.2875, 4154
18:03:03.136382, 443.29, 4152
18:03:03.136445, 443.2925, 4158
18:03:03.136469, 443.295, 4151
18:03:03.136777, 443.2975, 4125
18:03:03.136802, 443.3, 4171
18:03:03.136817, 443.3025, 4172
18:03:03.136831, 443.305, 4169
18:03:03.137079, 443.3075, 4163
18:03:03.137098, 443.31, 4154
18:03:03.137112, 443.3125, 4128
18:03:03.137126, 443.315, 4068
18:03:03.159063, 443.3175, 4115
18:03:03.159136, 443.32, 4092
18:03:03.159175, 443.3225, 4100
18:03:03.159210, 443.325, 4134
18:03:03.159248, 443.3275, 4155
18:03:03.159836, 443.33, 4157
18:03:03.159880, 443.3325, 4117
18:03:03.159911, 443.335, 4162
18:03:03.159940, 443.3375, 4159
18:03:03.169290, 443.34, 4149
18:03:03.169338, 443.3425, 4175
18:03:03.169372, 443.345, 4192
18:03:03.169403, 443.3475, 4177
18:03:03.192105, 443.35, 4141
18:03:03.192219, 443.3525, 4177
18:03:03.192254, 443.355, 4184
18:03:03.192336, 443.3575, 4165
18:03:03.198251, 443.36, 4179
18:03:03.198356, 443.3625, 4187
18:03:03.198412, 443.365, 4176
18:03:03.198464, 443.3675, 4119
18:03:03.199187, 443.37, 4154
18:03:03.199207, 443.3725, 4137
18:03:03.199221, 443.375, 4107
18:03:03.199235, 443.3775, 4143
18:03:03.204369, 443.38, 4152
18:03:03.204418, 443.3825, 4148
18:03:03.204452, 443.385, 4000
18:03:03.204483, 443.3875, 4174
18:03:03.233330, 443.39, 4172
18:03:03.233379, 443.3925, 4154
18:03:03.233401, 443.395, 4163
18:03:03.233461, 443.3975, 4184
18:03:03.258602, 443.4, 4171
18:03:03.258692, 443.4025, 4155
18:03:03.258738, 443.405, 4182
18:03:03.258761, 443.4075, 4197
18:03:03.258781, 443.41, 4237
18:03:03.259239, 443.4125, 4326
18:03:03.259278, 443.415, 4406
18:03:03.259299, 443.4175, 4414
18:03:03.259318, 443.42, 4436
18:03:03.259710, 443.4225, 4471
18:03:03.259744, 443.425, 4423
18:03:03.259765, 443.4275, 4295
18:03:03.259785, 443.43, 4114
18:03:03.268145, 443.4325, 3908
18:03:03.268244, 443.435, 3585
18:03:03.268295, 443.4375, 3240
18:03:03.268343, 443.44, 2889
18:03:03.269612, 443.4425, 2429
18:03:03.269673, 443.445, 1923
18:03:03.269719, 443.4475, 1682
18:03:03.269763, 443.45, 1682
18:03:03.296345, 443.4525, 1854
18:03:03.296416, 443.455, 2291
18:03:03.296485, 443.4575, 3365
18:03:03.296536, 443.46, 4248
18:03:03.296958, 443.4625, 4776
18:03:03.296987, 443.465, 5042
18:03:03.297008, 443.4675, 5027
18:03:03.297029, 443.47, 4928
18:03:03.300939, 443.4725, 4722
18:03:03.301005, 443.475, 4633
18:03:03.301047, 443.4775, 4563
18:03:03.301087, 443.48, 4549
18:03:03.301127, 443.4825, 4512
18:03:03.325895, 443.485, 4508
18:03:03.326039, 443.4875, 4481
18:03:03.326068, 443.49, 4451
18:03:03.326090, 443.4925, 4519
18:03:03.326418, 443.495, 4524
18:03:03.326451, 443.4975, 4495
18:03:03.326466, 443.5, 4502
18:03:03.326479, 443.5025, 4503
18:03:03.335687, 443.505, 4504
18:03:03.335737, 443.5075, 4436
18:03:03.335766, 443.51, 4470
18:03:03.335793, 443.5125, 4455
18:03:03.374350, 443.515, 4441
18:03:03.374436, 443.5175, 4453
18:03:03.374461, 443.52, 4437
18:03:03.374483, 443.5225, 4424
18:03:03.374914, 443.525, 4407
18:03:03.374949, 443.5275, 4432
18:03:03.374965, 443.53, 4414
18:03:03.374989, 443.5325, 4399
18:03:03.375016, 443.535, 4395
18:03:03.375777, 443.5375, 4361
18:03:03.375810, 443.54, 4347
18:03:03.375828, 443.5425, 4191
18:03:03.375846, 443.545, 4357
18:03:03.376819, 443.5475, 4346
18:03:03.376874, 443.55, 4314
18:03:03.376941, 443.5525, 4296
18:03:03.376974, 443.555, 4304
18:03:03.390559, 443.5575, 4298
18:03:03.390621, 443.56, 4242
18:03:03.390657, 443.5625, 4301
18:03:03.390691, 443.565, 4291
18:03:03.409152, 443.5675, 4291
18:03:03.409239, 443.57, 4292
18:03:03.409280, 443.5725, 4283
18:03:03.409310, 443.575, 4289
18:03:03.409739, 443.5775, 4230
18:03:03.409771, 443.58, 4270
18:03:03.409788, 443.5825, 4282
18:03:03.409804, 443.585, 4283
18:03:03.445641, 443.5875, 4282
18:03:03.445704, 443.59, 4273
18:03:03.445752, 443.5925, 4254
18:03:03.445782, 443.595, 4214
18:03:03.446143, 443.5975, 4259
18:03:03.446166, 443.6, 4272
18:03:03.446182, 443.6025, 4262
18:03:03.446196, 443.605, 4253
18:03:03.446439, 443.6075, 4249
18:03:03.446457, 443.61, 4252
18:03:03.446472, 443.6125, 4089
18:03:03.446486, 443.615, 4258
18:03:03.449059, 443.6175, 4246
18:03:03.449081, 443.62, 4216
18:03:03.449095, 443.6225, 4207
18:03:03.449109, 443.625, 4236
18:03:03.459494, 443.6275, 4226
18:03:03.459567, 443.63, 4222
18:03:03.459595, 443.6325, 4223
18:03:03.459671, 443.635, 4210
18:03:03.459722, 443.6375, 4183
18:03:03.485706, 443.64, 4209
18:03:03.485787, 443.6425, 4220
18:03:03.485827, 443.645, 4211
18:03:03.485864, 443.6475, 4180
18:03:03.486917, 443.65, 4213
18:03:03.487005, 443.6525, 4214
18:03:03.487062, 443.655, 4193
18:03:03.487115, 443.6575, 4197
18:03:03.513146, 443.66, 4194
18:03:03.513252, 443.6625, 4181
18:03:03.513303, 443.665, 4151
18:03:03.513347, 443.6675, 4187
18:03:03.514114, 443.67, 4189
18:03:03.514167, 443.6725, 4181
18:03:03.514210, 443.675, 4180
18:03:03.514251, 443.6775, 4180
18:03:03.522003, 443.68, 4197
18:03:03.522105, 443.6825, 4015
18:03:03.522164, 443.685, 4187
18:03:03.522216, 443.6875, 4172
18:03:03.523040, 443.69, 4156
18:03:03.523060, 443.6925, 4143
18:03:03.523074, 443.695, 4176
18:03:03.523088, 443.6975, 4162
18:03:03.544199, 443.7, 4140
18:03:03.544305, 443.7025, 4176
18:03:03.544345, 443.705, 4171
18:03:03.544376, 443.7075, 4152
18:03:03.544900, 443.71, 4159
18:03:03.544948, 443.7125, 4169
18:03:03.544975, 443.715, 4157
18:03:03.545000, 443.7175, 4105
18:03:03.545026, 443.72, 4161
18:03:03.545860, 443.7225, 4159
18:03:03.545892, 443.725, 4152
18:03:03.545907, 443.7275, 4146
18:03:03.545921, 443.73, 4148
18:03:03.579390, 443.7325, 4144
18:03:03.579580, 443.735, 4086
18:03:03.579652, 443.7375, 4140
18:03:03.579749, 443.74, 4132
18:03:03.580748, 443.7425, 4123
18:03:03.580819, 443.745, 4123
18:03:03.580867, 443.7475, 4122
18:03:03.580913, 443.75, 4143
18:03:03.581721, 443.7525, 4108
18:03:03.581781, 443.755, 4173
18:03:03.581826, 443.7575, 4182
18:03:03.581870, 443.76, 4159
18:03:03.589770, 443.7625, 4170
18:03:03.589839, 443.765, 4186
18:03:03.589881, 443.7675, 4188
18:03:03.589919, 443.77, 4183
18:03:03.612143, 443.7725, 4221
18:03:03.612266, 443.775, 4250
18:03:03.612310, 443.7775, 4225
18:03:03.612340, 443.78, 4216
18:03:03.612790, 443.7825, 4225
18:03:03.612822, 443.785, 4231
18:03:03.612845, 443.7875, 4177
18:03:03.612866, 443.79, 4243
18:03:03.646386, 443.7925, 4246
18:03:03.646473, 443.795, 4224
18:03:03.646497, 443.7975, 4239
18:03:03.646515, 443.8, 4268
18:03:03.646918, 443.8025, 4280
18:03:03.646949, 443.805, 4247
18:03:03.646974, 443.8075, 4244
18:03:03.646997, 443.81, 4238
18:03:03.647020, 443.8125, 4227
18:03:03.647313, 443.815, 4245
18:03:03.647341, 443.8175, 4227
18:03:03.647368, 443.82, 4245
18:03:03.647392, 443.8225, 4067
18:03:03.677427, 443.825, 4254
18:03:03.677505, 443.8275, 4247
18:03:03.677528, 443.83, 4234
18:03:03.677548, 443.8325, 4248
18:03:03.677954, 443.835, 4256
18:03:03.677992, 443.8375, 4236
18:03:03.678009, 443.84, 4197
18:03:03.678025, 443.8425, 4246
18:03:03.678295, 443.845, 4235
18:03:03.678321, 443.8475, 4211
18:03:03.678336, 443.85, 4234
18:03:03.678351, 443.8525, 4230
18:03:03.685989, 443.855, 4224
18:03:03.686098, 443.8575, 4171
18:03:03.686155, 443.86, 4230
18:03:03.686207, 443.8625, 4220
18:03:03.714148, 443.865, 4230
18:03:03.714223, 443.8675, 4218
18:03:03.714268, 443.87, 4230
18:03:03.714307, 443.8725, 4215
18:03:03.714646, 443.875, 4177
18:03:03.714667, 443.8775, 4230
18:03:03.714682, 443.88, 4237
18:03:03.714697, 443.8825, 4198
18:03:03.714712, 443.885, 4216
18:03:03.715038, 443.8875, 4206
18:03:03.715066, 443.89, 4201
18:03:03.715085, 443.8925, 4035
18:03:03.715103, 443.895, 4201
18:03:03.721047, 443.8975, 4220
18:03:03.721132, 443.9, 4200
18:03:03.721187, 443.9025, 4192
18:03:03.721240, 443.905, 4218
18:03:03.749943, 443.9075, 4188
18:03:03.750000, 443.91, 4140
18:03:03.750029, 443.9125, 4184
18:03:03.750050, 443.915, 4169
18:03:03.750399, 443.9175, 4181
18:03:03.750424, 443.92, 4180
18:03:03.750440, 443.9225, 4184
18:03:03.750455, 443.925, 4182
18:03:03.756051, 443.9275, 4178
18:03:03.756145, 443.93, 4192
18:03:03.756203, 443.9325, 4171
18:03:03.756254, 443.935, 4180
18:03:03.778204, 443.9375, 4192
18:03:03.778309, 443.94, 4187
18:03:03.778342, 443.9425, 4183
18:03:03.778370, 443.945, 4154
18:03:03.778905, 443.9475, 4196
18:03:03.778953, 443.95, 4182
18:03:03.778974, 443.9525, 4160
18:03:03.778995, 443.955, 4183
18:03:03.781760, 443.9575, 4158
18:03:03.781800, 443.96, 4162
18:03:03.781821, 443.9625, 4014
18:03:03.781840, 443.965, 4175
18:03:03.811732, 443.9675, 4166
18:03:03.811846, 443.97, 4153
18:03:03.811883, 443.9725, 4157
18:03:03.811913, 443.975, 4162
18:03:03.819331, 443.9775, 4171
18:03:03.819412, 443.98, 4144
18:03:03.819460, 443.9825, 4159
18:03:03.819502, 443.985, 4173
18:03:03.819543, 443.9875, 4146
18:03:03.820490, 443.99, 4186
18:03:03.820547, 443.9925, 4172
18:03:03.820620, 443.995, 4168
18:03:03.820686, 443.9975, 4150
18:03:03.825856, 444.0, 4153
18:03:03.825902, 444.0025, 4164
18:03:03.825923, 444.005, 4187
18:03:03.825979, 444.0075, 4171
18:03:03.845475, 444.01, 4173
18:03:03.845593, 444.0125, 4178
18:03:03.845627, 444.015, 4137
18:03:03.845654, 444.0175, 4202
18:03:03.846250, 444.02, 4190
18:03:03.846304, 444.0225, 4168
18:03:03.846328, 444.025, 4165
18:03:03.846350, 444.0275, 4181
18:03:03.861160, 444.03, 4182
18:03:03.861208, 444.0325, 4143
18:03:03.861229, 444.035, 4175
18:03:03.861249, 444.0375, 4167
18:03:03.879867, 444.04, 4158
18:03:03.879960, 444.0425, 4156
18:03:03.879986, 444.045, 4147
18:03:03.880007, 444.0475, 4165
18:03:03.889512, 444.05, 4115
18:03:03.889622, 444.0525, 4151
18:03:03.889678, 444.055, 4133
18:03:03.889729, 444.0575, 4126
18:03:03.890707, 444.06, 4147
18:03:03.890775, 444.0625, 4156
18:03:03.890835, 444.065, 4141
18:03:03.890907, 444.0675, 4150
18:03:03.914213, 444.07, 4172
18:03:03.914274, 444.0725, 4194
18:03:03.914323, 444.075, 4159
18:03:03.914345, 444.0775, 4175
18:03:03.914650, 444.08, 4195
18:03:03.914670, 444.0825, 4185
18:03:03.914685, 444.085, 4144
18:03:03.914699, 444.0875, 4164
18:03:03.946931, 444.09, 4157
18:03:03.947042, 444.0925, 4145
18:03:03.947134, 444.095, 4168
18:03:03.947175, 444.0975, 4162
18:03:03.947211, 444.1, 4161
18:03:03.947754, 444.1025, 4129
18:03:03.947799, 444.105, 4182
18:03:03.947826, 444.1075, 4164
18:03:03.947851, 444.11, 4138
18:03:03.948303, 444.1125, 4149
18:03:03.948336, 444.115, 4160
18:03:03.948362, 444.1175, 4184
18:03:03.948388, 444.12, 4007
18:03:03.958971, 444.1225, 4184
18:03:03.959015, 444.125, 4181
18:03:03.959042, 444.1275, 4168
18:03:03.959066, 444.13, 4191
18:03:03.962861, 444.1325, 4183
18:03:03.962920, 444.135, 4181
18:03:03.962955, 444.1375, 4157
18:03:03.962986, 444.14, 4163
18:03:03.980012, 444.1425, 4169
18:03:03.980168, 444.145, 4162
18:03:03.980204, 444.1475, 4160
18:03:03.980232, 444.15, 4201
18:03:03.994612, 444.1525, 4205
18:03:03.994670, 444.155, 4185
18:03:03.994691, 444.1575, 4192
18:03:03.994711, 444.16, 4176
18:03:03.994732, 444.1625, 4158
18:03:04.012588, 444.165, 4167
18:03:04.012685, 444.1675, 4173
18:03:04.012713, 444.17, 4174
18:03:04.012734, 444.1725, 4171
18:03:04.013116, 444.175, 4186
18:03:04.013150, 444.1775, 4166
18:03:04.013165, 444.18, 4156
18:03:04.013180, 444.1825, 4156
18:03:04.013440, 444.185, 4194
18:03:04.013469, 444.1875, 4183
18:03:04.013484, 444.19, 4121
18:03:04.013498, 444.1925, 4190
18:03:04.018121, 444.195, 4176
18:03:04.018172, 444.1975, 4160
18:03:04.018199, 444.2, 4163
18:03:04.018224, 444.2025, 4174
18:03:04.048502, 444.205, 4184
18:03:04.048570, 444.2075, 4142
18:03:04.048594, 444.21, 4174
18:03:04.048614, 444.2125, 4185
18:03:04.048962, 444.215, 4192
18:03:04.048984, 444.2175, 4192
18:03:04.048999, 444.22, 4170
18:03:04.049014, 444.2225, 4171
18:03:04.053329, 444.225, 4122
18:03:04.053409, 444.2275, 4195
18:03:04.053457, 444.23, 4181
18:03:04.053502, 444.2325, 4193
18:03:04.053548, 444.235, 4176
18:03:04.082312, 444.2375, 4191
18:03:04.082385, 444.24, 4176
18:03:04.082407, 444.2425, 4120
18:03:04.082427, 444.245, 4172
18:03:04.082721, 444.2475, 4166
18:03:04.082741, 444.25, 4166
18:03:04.082756, 444.2525, 4170
18:03:04.082770, 444.255, 4214
18:03:04.083030, 444.2575, 4203
18:03:04.083050, 444.26, 4031
18:03:04.083064, 444.2625, 4205
18:03:04.083078, 444.265, 4204
18:03:04.113108, 444.2675, 4199
18:03:04.113236, 444.27, 4187
18:03:04.113269, 444.2725, 4204
18:03:04.113296, 444.275, 4204
18:03:04.116682, 444.2775, 4187
18:03:04.116759, 444.28, 4180
18:03:04.116793, 444.2825, 4162
18:03:04.116821, 444.285, 4164
18:03:04.117888, 444.2875, 4181
18:03:04.117925, 444.29, 4160
18:03:04.117953, 444.2925, 4164
18:03:04.117979, 444.295, 4108
18:03:04.123009, 444.2975, 4164
18:03:04.123038, 444.3, 4164
18:03:04.123053, 444.3025, 4175
18:03:04.123066, 444.305, 4160
18:03:04.146420, 444.3075, 4166
18:03:04.146531, 444.31, 4163
18:03:04.146566, 444.3125, 4133
18:03:04.146595, 444.315, 4173
18:03:04.147186, 444.3175, 4163
18:03:04.147238, 444.32, 4138
18:03:04.147264, 444.3225, 4155
18:03:04.147287, 444.325, 4172
18:03:04.158195, 444.3275, 4162
18:03:04.158250, 444.33, 4113
18:03:04.158279, 444.3325, 4183
18:03:04.158305, 444.335, 4185
18:03:04.158330, 444.3375, 4154
18:03:04.181464, 444.34, 4151
18:03:04.181551, 444.3425, 4133
18:03:04.181592, 444.345, 4127
18:03:04.186929, 444.3475, 4064
18:03:04.187000, 444.35, 4099
18:03:04.187051, 444.3525, 4075
18:03:04.187099, 444.355, 4064
18:03:04.187147, 444.3575, 4084
18:03:04.188120, 444.36, 4090
18:03:04.188176, 444.3625, 4120
18:03:04.188224, 444.365, 4141
18:03:04.188268, 444.3675, 4128
18:03:04.193516, 444.37, 4129
18:03:04.193600, 444.3725, 4120
18:03:04.193648, 444.375, 4125
18:03:04.193689, 444.3775, 4154
18:03:04.214399, 444.38, 4161
18:03:04.214493, 444.3825, 4160
18:03:04.214521, 444.385, 4189
18:03:04.214543, 444.3875, 4169
18:03:04.219225, 444.39, 4153
18:03:04.219265, 444.3925, 4176
18:03:04.219282, 444.395, 4186
18:03:04.219297, 444.3975, 4195
18:03:04.228622, 444.4, 4146
18:03:04.228665, 444.4025, 4186
18:03:04.228696, 444.405, 4181
18:03:04.228717, 444.4075, 4174
18:03:04.249513, 444.41, 4168
18:03:04.249610, 444.4125, 4171
18:03:04.249634, 444.415, 4162
18:03:04.249654, 444.4175, 4119
18:03:04.249952, 444.42, 4183
18:03:04.249973, 444.4225, 4173
18:03:04.249989, 444.425, 4180
18:03:04.250003, 444.4275, 4168
18:03:04.254532, 444.43, 4180
18:03:04.254614, 444.4325, 4175
18:03:04.254668, 444.435, 4116
18:03:04.254718, 444.4375, 4156
18:03:04.254769, 444.44, 4157
18:03:04.281174, 444.4425, 4149
18:03:04.281343, 444.445, 4152
18:03:04.281381, 444.4475, 4172
18:03:04.281408, 444.45, 4223
18:03:04.281925, 444.4525, 4289
18:03:04.281969, 444.455, 4411
18:03:04.281988, 444.4575, 4414
18:03:04.282007, 444.46, 4448
18:03:04.289539, 444.4625, 4475
18:03:04.289610, 444.465, 4434
18:03:04.289662, 444.4675, 4286
18:03:04.289709, 444.47, 4054
18:03:04.314662, 444.4725, 3827
18:03:04.314786, 444.475, 3507
18:03:04.314820, 444.4775, 3192
18:03:04.314884, 444.48, 2769
18:03:04.315440, 444.4825, 2250
18:03:04.315486, 444.485, 1743
18:03:04.315508, 444.4875, 1485
18:03:04.315529, 444.49, 1534
18:03:04.315935, 444.4925, 1737
18:03:04.315976, 444.495, 2366
18:03:04.315999, 444.4975, 3340
18:03:04.316020, 444.5, 4324
18:03:04.347967, 444.5025, 4915
18:03:04.348039, 444.505, 5061
18:03:04.348060, 444.5075, 5043
18:03:04.348079, 444.51, 4858
18:03:04.348467, 444.5125, 4700
18:03:04.348497, 444.515, 4610
18:03:04.348512, 444.5175, 4575
18:03:04.348526, 444.52, 4562
18:03:04.350530, 444.5225, 4470
18:03:04.350560, 444.525, 4500
18:03:04.350574, 444.5275, 4514
18:03:04.350587, 444.53, 4514
18:03:04.359817, 444.5325, 4532
18:03:04.359917, 444.535, 4524
18:03:04.359971, 444.5375, 4503
18:03:04.360022, 444.54, 4478
18:03:04.387109, 444.5425, 4526
18:03:04.387160, 444.545, 4489
18:03:04.387182, 444.5475, 4487
18:03:04.387201, 444.55, 4470
18:03:04.387570, 444.5525, 4467
18:03:04.387592, 444.555, 4458
18:03:04.387608, 444.5575, 4421
18:03:04.387622, 444.56, 4459
18:03:04.394674, 444.5625, 4444
18:03:04.394769, 444.565, 4412
18:03:04.394838, 444.5675, 4402
18:03:04.394952, 444.57, 4408
18:03:04.416782, 444.5725, 4379
18:03:04.416844, 444.575, 4357
18:03:04.416867, 444.5775, 4390
18:03:04.416886, 444.58, 4380
18:03:04.416935, 444.5825, 4343
18:03:04.417241, 444.585, 4350
18:03:04.417262, 444.5875, 4337
18:03:04.417277, 444.59, 4341
18:03:04.417292, 444.5925, 4294
18:03:04.420412, 444.595, 4318
18:03:04.420436, 444.5975, 4296
18:03:04.420452, 444.6, 4291
18:03:04.420466, 444.6025, 4305
18:03:04.429703, 444.605, 4304
18:03:04.429753, 444.6075, 4304
18:03:04.429774, 444.61, 4262
18:03:04.429793, 444.6125, 4285
18:03:04.449568, 444.615, 4255
18:03:04.449665, 444.6175, 4267
18:03:04.449764, 444.62, 4279
18:03:04.449808, 444.6225, 4283
18:03:04.455732, 444.625, 4253
18:03:04.455826, 444.6275, 4226
18:03:04.455884, 444.63, 4271
18:03:04.455920, 444.6325, 4238
18:03:04.482069, 444.635, 4227
18:03:04.482153, 444.6375, 4253
18:03:04.482176, 444.64, 4216
18:03:04.482197, 444.6425, 4204
18:03:04.482675, 444.645, 4166
18:03:04.482707, 444.6475, 4218
18:03:04.482724, 444.65, 4221
18:03:04.482738, 444.6525, 4214
18:03:04.483104, 444.655, 4225
18:03:04.483140, 444.6575, 4231
18:03:04.483161, 444.66, 4223
18:03:04.483181, 444.6625, 4177
18:03:04.490774, 444.665, 4220
18:03:04.490856, 444.6675, 4212
18:03:04.490912, 444.67, 4189
18:03:04.490951, 444.6725, 4193
18:03:04.490985, 444.675, 4218
18:03:04.516592, 444.6775, 4184
18:03:04.516668, 444.68, 4139
18:03:04.516693, 444.6825, 4192
18:03:04.516712, 444.685, 4183
18:03:04.517055, 444.6875, 4173
18:03:04.517077, 444.69, 4160
18:03:04.517092, 444.6925, 4176
18:03:04.517106, 444.695, 4184
18:03:04.526084, 444.6975, 4172
18:03:04.526180, 444.7, 4209
18:03:04.526238, 444.7025, 4206
18:03:04.526289, 444.705, 4190
18:03:04.552631, 444.7075, 4199
18:03:04.552695, 444.71, 4207
18:03:04.552742, 444.7125, 4202
18:03:04.552766, 444.715, 4160
18:03:04.553085, 444.7175, 4180
18:03:04.553111, 444.72, 4191
18:03:04.553127, 444.7225, 4187
18:03:04.553142, 444.725, 4191
18:03:04.553412, 444.7275, 4198
18:03:04.553433, 444.73, 4203
18:03:04.553449, 444.7325, 4156
18:03:04.553464, 444.735, 4197
18:03:04.585452, 444.7375, 4190
18:03:04.585514, 444.74, 4193
18:03:04.585549, 444.7425, 4190
18:03:04.585567, 444.745, 4204
18:03:04.585999, 444.7475, 4181
18:03:04.586027, 444.75, 4159
18:03:04.586044, 444.7525, 4168
18:03:04.586059, 444.755, 4144
18:03:04.586075, 444.7575, 4139
18:03:04.586654, 444.76, 4170
18:03:04.586673, 444.7625, 4151
18:03:04.586688, 444.765, 4162
18:03:04.586702, 444.7675, 4097
18:03:04.595742, 444.77, 4149
18:03:04.595801, 444.7725, 4132
18:03:04.595832, 444.775, 4108
18:03:04.595859, 444.7775, 4113
18:03:04.617310, 444.78, 4119
18:03:04.617392, 444.7825, 4101
18:03:04.617447, 444.785, 4067
18:03:04.617533, 444.7875, 4112
18:03:04.618009, 444.79, 4085
18:03:04.618042, 444.7925, 4078
18:03:04.618066, 444.795, 4087
18:03:04.618089, 444.7975, 4087
18:03:04.631133, 444.8, 4090
18:03:04.631196, 444.8025, 4067
18:03:04.631225, 444.805, 4095
18:03:04.631252, 444.8075, 4115
18:03:04.631278, 444.81, 4122
18:03:04.649447, 444.8125, 4127
18:03:04.649519, 444.815, 4154
18:03:04.649542, 444.8175, 4165
18:03:04.649957, 444.82, 4140
18:03:04.650007, 444.8225, 4190
18:03:04.650025, 444.825, 4205
18:03:04.650041, 444.8275, 4201
18:03:04.650056, 444.83, 4195
18:03:04.656854, 444.8325, 4215
18:03:04.656915, 444.835, 4232
18:03:04.656942, 444.8375, 4188
18:03:04.656966, 444.84, 4226
18:03:04.666418, 444.8425, 4232
18:03:04.666491, 444.845, 4232
18:03:04.666549, 444.8475, 4256
18:03:04.666602, 444.85, 4233
18:03:04.685238, 444.8525, 4232
18:03:04.685304, 444.855, 4203
18:03:04.685339, 444.8575, 4240
18:03:04.685374, 444.86, 4243
18:03:04.692223, 444.8625, 4210
18:03:04.692317, 444.865, 4235
18:03:04.692369, 444.8675, 4208
18:03:04.692414, 444.87, 4212
18:03:04.721404, 444.8725, 4181
18:03:04.721471, 444.875, 4218
18:03:04.721499, 444.8775, 4214
18:03:04.721521, 444.88, 4220
18:03:04.721930, 444.8825, 4224
18:03:04.721959, 444.885, 4209
18:03:04.721976, 444.8875, 4205
18:03:04.721993, 444.89, 4176
18:03:04.722284, 444.8925, 4228
18:03:04.722305, 444.895, 4215
18:03:04.722322, 444.8975, 4183
18:03:04.722338, 444.9, 4219
18:03:04.727395, 444.9025, 4213
18:03:04.727486, 444.905, 4219
18:03:04.727541, 444.9075, 4156
18:03:04.727630, 444.91, 4202
18:03:04.752571, 444.9125, 4214
18:03:04.752665, 444.915, 4171
18:03:04.752691, 444.9175, 4185
18:03:04.752712, 444.92, 4191
18:03:04.753028, 444.9225, 4176
18:03:04.753050, 444.925, 4151
18:03:04.753066, 444.9275, 4159
18:03:04.753081, 444.93, 4169
18:03:04.753097, 444.9325, 4153
18:03:04.761910, 444.935, 4158
18:03:04.761965, 444.9375, 4181
18:03:04.761998, 444.94, 4181
18:03:04.762027, 444.9425, 4128
18:03:04.783957, 444.945, 4183
18:03:04.784097, 444.9475, 4194
18:03:04.784148, 444.95, 4167
18:03:04.784187, 444.9525, 4183
18:03:04.790285, 444.955, 4175
18:03:04.790349, 444.9575, 4186
18:03:04.790380, 444.96, 4138
18:03:04.790408, 444.9625, 4178
18:03:04.791506, 444.965, 4191
18:03:04.791545, 444.9675, 4143
18:03:04.791573, 444.97, 4167
18:03:04.791600, 444.9725, 4160
18:03:04.817279, 444.975, 4180
18:03:04.817353, 444.9775, 4013
18:03:04.817378, 444.98, 4188
18:03:04.817399, 444.9825, 4184
18:03:04.817797, 444.985, 4186
18:03:04.817828, 444.9875, 4199
18:03:04.817844, 444.99, 4194
18:03:04.817858, 444.9925, 4187
18:03:04.822976, 444.995, 4159
18:03:04.823028, 444.9975, 4177
18:03:04.823051, 445.0, 4173
18:03:04.823073, 445.0025, 4195
18:03:04.834164, 445.005, 4182
18:03:04.834277, 445.0075, 4219
18:03:04.834479, 445.01, 4204
18:03:04.834575, 445.0125, 4169
18:03:04.834674, 445.015, 4212
18:03:04.853321, 445.0175, 4195
18:03:04.853392, 445.02, 4173
18:03:04.853417, 445.0225, 4206
18:03:04.853439, 445.025, 4195
18:03:04.853812, 445.0275, 4186
18:03:04.853836, 445.03, 4133
18:03:04.853852, 445.0325, 4190
18:03:04.853867, 445.035, 4190
18:03:04.867823, 445.0375, 4147
18:03:04.886130, 445.04, 4160
18:03:04.886188, 445.0425, 4176
18:03:04.886211, 445.045, 4192
18:03:04.886556, 445.0475, 4170
18:03:04.886578, 445.05, 4170
18:03:04.886593, 445.0525, 4189
18:03:04.886607, 445.055, 4161
18:03:04.886882, 445.0575, 4161
18:03:04.886903, 445.06, 4177
18:03:04.886918, 445.0625, 4177
18:03:04.886932, 445.065, 4125
18:03:04.892785, 445.0675, 4184
18:03:04.892812, 445.07, 4189
18:03:04.892827, 445.0725, 4176
18:03:04.892841, 445.075, 4184
18:03:04.921604, 445.0775, 4180
18:03:04.921648, 445.08, 4169
18:03:04.921672, 445.0825, 4102
18:03:04.921692, 445.085, 4172
18:03:04.922056, 445.0875, 4163
18:03:04.922081, 445.09, 4156
18:03:04.922098, 445.0925, 4176
18:03:04.922114, 445.095, 4163
18:03:04.927807, 445.0975, 4148
18:03:04.927839, 445.1, 4128
18:03:04.927857, 445.1025, 4153
18:03:04.927873, 445.105, 4162
18:03:04.927888, 445.1075, 4149
18:03:04.951132, 445.11, 4157
18:03:04.951239, 445.1125, 4167
18:03:04.951273, 445.115, 4163
18:03:04.951305, 445.1175, 4124
18:03:04.951872, 445.12, 4175
18:03:04.951928, 445.1225, 4168
18:03:04.951952, 445.125, 4139
18:03:04.952017, 445.1275, 4157
18:03:04.954177, 445.13, 4144
18:03:04.954211, 445.1325, 4141
18:03:04.954235, 445.135, 4117
18:03:04.954257, 445.1375, 4138
18:03:04.963123, 445.14, 4133
18:03:04.963151, 445.1425, 4139
18:03:04.963167, 445.145, 4143
18:03:04.963181, 445.1475, 4155
18:03:04.985884, 445.15, 4118
18:03:04.985943, 445.1525, 4075
18:03:04.985964, 445.155, 4154
18:03:04.985983, 445.1575, 4164
18:03:04.989203, 445.16, 4162
18:03:04.989240, 445.1625, 4173
18:03:04.989265, 445.165, 4154
18:03:04.989287, 445.1675, 4151
18:03:04.997916, 445.17, 4096
18:03:04.997995, 445.1725, 4153
18:03:04.998017, 445.175, 4192
18:03:04.998038, 445.1775, 4184
18:03:05.021206, 445.18, 4190
18:03:05.021272, 445.1825, 4184
18:03:05.021315, 445.185, 4174
18:03:05.021353, 445.1875, 4132
18:03:05.021392, 445.19, 4163
18:03:05.021971, 445.1925, 4168
18:03:05.022008, 445.195, 4146
18:03:05.022039, 445.1975, 4152
18:03:05.022067, 445.2, 4168
18:03:05.034189, 445.2025, 4172
18:03:05.034257, 445.205, 4104
18:03:05.034341, 445.2075, 4183
18:03:05.034373, 445.21, 4164
18:03:05.056921, 445.2125, 4145
18:03:05.057036, 445.215, 4175
18:03:05.057074, 445.2175, 4166
18:03:05.057096, 445.22, 4174
18:03:05.057421, 445.2225, 4124
18:03:05.057448, 445.225, 4177
18:03:05.057464, 445.2275, 4187
18:03:05.057479, 445.23, 4194
18:03:05.059073, 445.2325, 4162
18:03:05.059097, 445.235, 4180
18:03:05.059113, 445.2375, 4158
18:03:05.059128, 445.24, 4126
18:03:05.085081, 445.2425, 4198
18:03:05.085189, 445.245, 4181
18:03:05.085216, 445.2475, 4179
18:03:05.085238, 445.25, 4196
18:03:05.085588, 445.2525, 4186
18:03:05.085619, 445.255, 4173
18:03:05.085635, 445.2575, 4120
18:03:05.085649, 445.26, 4182
18:03:05.085906, 445.2625, 4161
18:03:05.085931, 445.265, 4161
18:03:05.085947, 445.2675, 4161
18:03:05.085961, 445.27, 4177
18:03:05.119606, 445.2725, 4172
18:03:05.119728, 445.275, 4134
18:03:05.119765, 445.2775, 4169
18:03:05.119838, 445.28, 4163
18:03:05.120301, 445.2825, 4163
18:03:05.120334, 445.285, 4150
18:03:05.120356, 445.2875, 4158
18:03:05.120378, 445.29, 4136
18:03:05.120769, 445.2925, 4108
18:03:05.120807, 445.295, 4141
18:03:05.120829, 445.2975, 4156
18:03:05.120851, 445.3, 4154
18:03:05.129582, 445.3025, 4147
18:03:05.129674, 445.305, 4175
18:03:05.129724, 445.3075, 4165
18:03:05.129769, 445.31, 4112
18:03:05.151733, 445.3125, 4164
18:03:05.151810, 445.315, 4166
18:03:05.151834, 445.3175, 4162
18:03:05.151853, 445.32, 4142
18:03:05.152247, 445.3225, 4162
18:03:05.152283, 445.325, 4159
18:03:05.152298, 445.3275, 4116
18:03:05.152313, 445.33, 4163
18:03:05.164719, 445.3325, 4168
18:03:05.164817, 445.335, 4148
18:03:05.164867, 445.3375, 4166
18:03:05.164913, 445.34, 4165
18:03:05.164958, 445.3425, 4174
18:03:05.189107, 445.345, 4158
18:03:05.189191, 445.3475, 4191
18:03:05.189218, 445.35, 4164
18:03:05.189238, 445.3525, 4141
18:03:05.192545, 445.355, 4146
18:03:05.192572, 445.3575, 4157
18:03:05.192588, 445.36, 4148
18:03:05.192603, 445.3625, 4117
18:03:05.193873, 445.365, 4160
18:03:05.193915, 445.3675, 4168
18:03:05.193947, 445.37, 4172
18:03:05.193987, 445.3725, 4172
18:03:05.200371, 445.375, 4177
18:03:05.200540, 445.3775, 4170
18:03:05.200577, 445.38, 4015
18:03:05.200665, 445.3825, 4188
18:03:05.221297, 445.385, 4193
18:03:05.221359, 445.3875, 4171
18:03:05.221383, 445.39, 4160
18:03:05.221401, 445.3925, 4173
18:03:05.225889, 445.395, 4153
18:03:05.225968, 445.3975, 4134
18:03:05.226010, 445.4, 4178
18:03:05.226045, 445.4025, 4167
18:03:05.226079, 445.405, 4169
18:03:05.234319, 445.4075, 4170
18:03:05.234365, 445.41, 4176
18:03:05.234385, 445.4125, 4173
18:03:05.234403, 445.415, 4140
18:03:05.252604, 445.4175, 4174
18:03:05.252719, 445.42, 4167
18:03:05.252754, 445.4225, 4158
18:03:05.252784, 445.425, 4180
18:03:05.253365, 445.4275, 4189
18:03:05.253413, 445.43, 4187
18:03:05.253436, 445.4325, 4145
18:03:05.253458, 445.435, 4197
18:03:05.260777, 445.4375, 4180
18:03:05.260842, 445.44, 4186
18:03:05.260881, 445.4425, 4194
18:03:05.260915, 445.445, 4180
18:03:05.285578, 445.4475, 4166
18:03:05.285658, 445.45, 4125
18:03:05.285680, 445.4525, 4160
18:03:05.285749, 445.455, 4156
18:03:05.286824, 445.4575, 4147
18:03:05.286941, 445.46, 4178
18:03:05.286975, 445.4625, 4180
18:03:05.287001, 445.465, 4183
18:03:05.295676, 445.4675, 4138
18:03:05.295759, 445.47, 4202
18:03:05.295811, 445.4725, 4227
18:03:05.295860, 445.475, 4206
18:03:05.319248, 445.4775, 4171
18:03:05.319350, 445.48, 4142
18:03:05.319377, 445.4825, 4128
18:03:05.319396, 445.485, 4058
18:03:05.319435, 445.4875, 4101
18:03:05.319865, 445.49, 4104
18:03:05.319901, 445.4925, 4119
18:03:05.319919, 445.495, 4147
18:03:05.319935, 445.4975, 4170
18:03:05.321701, 445.5, 4160
18:03:05.321741, 445.5025, 4138
18:03:05.321757, 445.505, 4158
18:03:05.321772, 445.5075, 4145
18:03:05.356335, 445.51, 4131
18:03:05.356398, 445.5125, 4155
18:03:05.356422, 445.515, 4188
18:03:05.356474, 445.5175, 4181
18:03:05.356833, 445.52, 4176
18:03:05.356863, 445.5225, 4198
18:03:05.356881, 445.525, 4188
18:03:05.356896, 445.5275, 4178
18:03:05.357166, 445.53, 4169
18:03:05.357186, 445.5325, 4169
18:03:05.357201, 445.535, 4145
18:03:05.357216, 445.5375, 4003
18:03:05.388200, 445.54, 4157
18:03:05.388256, 445.5425, 4157
18:03:05.388281, 445.545, 4148
18:03:05.388301, 445.5475, 4176
18:03:05.388638, 445.55, 4165
18:03:05.388660, 445.5525, 4149
18:03:05.388676, 445.555, 4166
18:03:05.388690, 445.5575, 4177
18:03:05.388705, 445.56, 4162
18:03:05.391784, 445.5625, 4172
18:03:05.391807, 445.565, 4162
18:03:05.391822, 445.5675, 4167
18:03:05.391837, 445.57, 4148
18:03:05.401393, 445.5725, 4097
18:03:05.401448, 445.575, 4155
18:03:05.401516, 445.5775, 4149
18:03:05.401538, 445.58, 4163
18:03:05.422054, 445.5825, 4205
18:03:05.422144, 445.585, 4310
18:03:05.422178, 445.5875, 4357
18:03:05.422204, 445.59, 4367
18:03:05.422784, 445.5925, 4444
18:03:05.422819, 445.595, 4460
18:03:05.422852, 445.5975, 4449
18:03:05.422883, 445.6, 4327
18:03:05.426953, 445.6025, 4132
18:03:05.427003, 445.605, 3919
18:03:05.427035, 445.6075, 3579
18:03:05.427063, 445.61, 3323
18:03:05.453725, 445.6125, 2916
18:03:05.453791, 445.615, 2459
18:03:05.453816, 445.6175, 1946
18:03:05.453837, 445.62, 1685
18:03:05.454247, 445.6225, 1585
18:03:05.454281, 445.625, 1724
18:03:05.454296, 445.6275, 2258
18:03:05.454311, 445.63, 3120
18:03:05.454326, 445.6325, 4056
18:03:05.462195, 445.635, 4639
18:03:05.462289, 445.6375, 4963
18:03:05.462346, 445.64, 4996
18:03:05.462397, 445.6425, 4858
18:03:05.486565, 445.645, 4753
18:03:05.486687, 445.6475, 4619
18:03:05.486721, 445.65, 4554
18:03:05.486743, 445.6525, 4561
18:03:05.487186, 445.655, 4538
18:03:05.487233, 445.6575, 4491
18:03:05.487251, 445.66, 4460
18:03:05.487266, 445.6625, 4511
18:03:05.487793, 445.665, 4503
18:03:05.487824, 445.6675, 4504
18:03:05.487839, 445.67, 4505
18:03:05.487854, 445.6725, 4491
18:03:05.523213, 445.675, 4503
18:03:05.523289, 445.6775, 4472
18:03:05.523314, 445.68, 4515
18:03:05.523354, 445.6825, 4496
18:03:05.523754, 445.685, 4478
18:03:05.523790, 445.6875, 4476
18:03:05.523809, 445.69, 4466
18:03:05.523824, 445.6925, 4448
18:03:05.524093, 445.695, 4405
18:03:05.524113, 445.6975, 4431
18:03:05.524128, 445.7, 4439
18:03:05.524143, 445.7025, 4403
18:03:05.557256, 445.705, 4400
18:03:05.557362, 445.7075, 4396
18:03:05.557422, 445.71, 4379
18:03:05.557476, 445.7125, 4315
18:03:05.558094, 445.715, 4378
18:03:05.558135, 445.7175, 4356
18:03:05.558161, 445.72, 4311
18:03:05.558184, 445.7225, 4319
18:03:05.558206, 445.725, 4335
18:03:05.558614, 445.7275, 4309
18:03:05.558643, 445.73, 4150
18:03:05.558667, 445.7325, 4333
18:03:05.558689, 445.735, 4337
18:03:05.567016, 445.7375, 4318
18:03:05.567076, 445.74, 4293
18:03:05.567114, 445.7425, 4311
18:03:05.567149, 445.745, 4298
18:03:05.590329, 445.7475, 4271
18:03:05.590407, 445.75, 4309
18:03:05.590435, 445.7525, 4297
18:03:05.590462, 445.755, 4292
18:03:05.590947, 445.7575, 4277
18:03:05.590975, 445.76, 4274
18:03:05.590995, 445.7625, 4267
18:03:05.591014, 445.765, 4194
18:03:05.592848, 445.7675, 4248
18:03:05.592874, 445.77, 4272
18:03:05.592893, 445.7725, 4243
18:03:05.592912, 445.775, 4246
18:03:05.602168, 445.7775, 4236
18:03:05.602216, 445.78, 4222
18:03:05.602302, 445.7825, 4191
18:03:05.602325, 445.785, 4236
18:03:05.622100, 445.7875, 4227
18:03:05.622175, 445.79, 4213
18:03:05.622203, 445.7925, 4206
18:03:05.622223, 445.795, 4196
18:03:05.628745, 445.7975, 4217
18:03:05.628851, 445.8, 4216
18:03:05.628908, 445.8025, 4234
18:03:05.628959, 445.805, 4207
18:03:05.629010, 445.8075, 4203
18:03:05.637511, 445.81, 4193
18:03:05.637579, 445.8125, 4225
18:03:05.637598, 445.815, 4217
18:03:05.637614, 445.8175, 4179
18:03:05.656650, 445.82, 4204
18:03:05.656744, 445.8225, 4207
18:03:05.656771, 445.825, 4207
18:03:05.656790, 445.8275, 4194
18:03:05.657118, 445.83, 4199
18:03:05.657141, 445.8325, 4199
18:03:05.657156, 445.835, 4150
18:03:05.657170, 445.8375, 4201
18:03:05.663374, 445.84, 4198
18:03:05.663456, 445.8425, 4171
18:03:05.663506, 445.845, 4188
18:03:05.663551, 445.8475, 4215
18:03:05.692392, 445.85, 4190
18:03:05.692453, 445.8525, 4153
18:03:05.692478, 445.855, 4201
18:03:05.692497, 445.8575, 4176
18:03:05.692856, 445.86, 4195
18:03:05.692883, 445.8625, 4183
18:03:05.692898, 445.865, 4176
18:03:05.692912, 445.8675, 4172
18:03:05.698155, 445.87, 4148
18:03:05.698246, 445.8725, 4159
18:03:05.698316, 445.875, 4174
18:03:05.698380, 445.8775, 4175
18:03:05.723876, 445.88, 4193
18:03:05.724008, 445.8825, 4196
18:03:05.724050, 445.885, 4185
18:03:05.724080, 445.8875, 4131
18:03:05.724571, 445.89, 4179
18:03:05.724606, 445.8925, 4166
18:03:05.724630, 445.895, 4167
18:03:05.724652, 445.8975, 4155
18:03:05.732926, 445.9, 4156
18:03:05.732975, 445.9025, 4129
18:03:05.732993, 445.905, 3975
18:03:05.733007, 445.9075, 4153
18:03:05.755483, 445.91, 4124
18:03:05.755592, 445.9125, 4094
18:03:05.755629, 445.915, 4087
18:03:05.755660, 445.9175, 4088
18:03:05.755712, 445.92, 4093
18:03:05.761680, 445.9225, 4067
18:03:05.761748, 445.925, 4127
18:03:05.761780, 445.9275, 4135
18:03:05.761809, 445.93, 4133
18:03:05.762985, 445.9325, 4147
18:03:05.763016, 445.935, 4181
18:03:05.763059, 445.9375, 4174
18:03:05.763102, 445.94, 4191
18:03:05.790585, 445.9425, 4219
18:03:05.790633, 445.945, 4209
18:03:05.790651, 445.9475, 4204
18:03:05.790667, 445.95, 4210
18:03:05.792795, 445.9525, 4226
18:03:05.792835, 445.955, 4235
18:03:05.792860, 445.9575, 4175
18:03:05.792882, 445.96, 4255
18:03:05.793911, 445.9625, 4269
18:03:05.793941, 445.965, 4246
18:03:05.793966, 445.9675, 4274
18:03:05.793996, 445.97, 4266
18:03:05.803710, 445.9725, 4250
18:03:05.803764, 445.975, 4117
18:03:05.803792, 445.9775, 4283
18:03:05.803816, 445.98, 4268
18:03:05.803840, 445.9825, 4245
18:03:05.827259, 445.985, 4233
18:03:05.827320, 445.9875, 4239
18:03:05.827342, 445.99, 4205
18:03:05.827362, 445.9925, 4181
18:03:05.832033, 445.995, 4241
18:03:05.832120, 445.9975, 4255
18:03:05.832174, 446.0, 4231
18:03:05.832225, 446.0025, 4246
18:03:05.833134, 446.005, 4252
18:03:05.833200, 446.0075, 4251
18:03:05.833250, 446.01, 4229
18:03:05.833300, 446.0125, 4239
18:03:05.855849, 446.015, 4217
18:03:05.856002, 446.0175, 4209
18:03:05.856086, 446.02, 4198
18:03:05.856128, 446.0225, 4217
18:03:05.856450, 446.025, 4191
18:03:05.856480, 446.0275, 4160
18:03:05.856496, 446.03, 4203
18:03:05.856510, 446.0325, 4215
18:03:05.864161, 446.035, 4190
18:03:05.864202, 446.0375, 4176
18:03:05.864218, 446.04, 4172
18:03:05.864232, 446.0425, 4165
18:03:05.890290, 446.045, 4124
18:03:05.890400, 446.0475, 4196
18:03:05.890436, 446.05, 4194
18:03:05.890467, 446.0525, 4197
18:03:05.890495, 446.055, 4214
18:03:05.891138, 446.0575, 4202
18:03:05.891181, 446.06, 4172
18:03:05.891206, 446.0625, 4134
18:03:05.891229, 446.065, 4155
18:03:05.899252, 446.0675, 4159
18:03:05.899283, 446.07, 4149
18:03:05.899299, 446.0725, 4157
18:03:05.899314, 446.075, 4178
18:03:05.924241, 446.0775, 4162
18:03:05.924333, 446.08, 4158
18:03:05.924364, 446.0825, 4185
18:03:05.924390, 446.085, 4177
18:03:05.927668, 446.0875, 4167
18:03:05.927705, 446.09, 4156
18:03:05.927728, 446.0925, 4164
18:03:05.927750, 446.095, 4180
18:03:05.928890, 446.0975, 4130
18:03:05.928918, 446.1, 4173
18:03:05.928941, 446.1025, 4171
18:03:05.928963, 446.105, 4155
18:03:05.955432, 446.1075, 4185
18:03:05.955542, 446.11, 4174
18:03:05.955568, 446.1125, 4150
18:03:05.955636, 446.115, 4004
18:03:05.955949, 446.1175, 4200
18:03:05.955979, 446.12, 4202
18:03:05.955994, 446.1225, 4187
18:03:05.956008, 446.125, 4191
18:03:05.956023, 446.1275, 4161
18:03:05.956300, 446.13, 4153
18:03:05.956327, 446.1325, 3992
18:03:05.956343, 446.135, 4174
18:03:05.956358, 446.1375, 4184
18:03:05.992812, 446.14, 4150
18:03:05.992872, 446.1425, 4162
18:03:05.992896, 446.145, 4175
18:03:05.992916, 446.1475, 4170
18:03:05.993255, 446.15, 4168
18:03:05.993275, 446.1525, 4146
18:03:05.993291, 446.155, 4144
18:03:05.993305, 446.1575, 4110
18:03:05.993557, 446.16, 4126
18:03:05.993576, 446.1625, 4148
18:03:05.993590, 446.165, 4143
18:03:05.993604, 446.1675, 3993
18:03:05.995518, 446.17, 4185
18:03:05.995542, 446.1725, 4173
18:03:05.995558, 446.175, 4142
18:03:05.995572, 446.1775, 4170
18:03:06.027605, 446.18, 4162
18:03:06.027694, 446.1825, 4143
18:03:06.027723, 446.185, 4098
18:03:06.027744, 446.1875, 4150
18:03:06.028062, 446.19, 4155
18:03:06.028087, 446.1925, 4143
18:03:06.028103, 446.195, 4141
18:03:06.028118, 446.1975, 4150
18:03:06.028134, 446.2, 4127
18:03:06.057647, 446.2025, 4117
18:03:06.057760, 446.205, 4160
18:03:06.057801, 446.2075, 4123
18:03:06.057829, 446.21, 4113
18:03:06.058599, 446.2125, 4148
18:03:06.058656, 446.215, 4158
18:03:06.058682, 446.2175, 4149
18:03:06.058705, 446.22, 4136
18:03:06.059163, 446.2225, 4165
18:03:06.059198, 446.225, 4163
18:03:06.059224, 446.2275, 4139
18:03:06.059247, 446.23, 4144
18:03:06.059673, 446.2325, 4178
18:03:06.059705, 446.235, 4164
18:03:06.059729, 446.2375, 4111
18:03:06.059752, 446.24, 4161
18:03:06.066010, 446.2425, 4153
18:03:06.066109, 446.245, 4151
18:03:06.066166, 446.2475, 4154
18:03:06.066218, 446.25, 4140
18:03:06.091401, 446.2525, 4127
18:03:06.091466, 446.255, 4106
18:03:06.091489, 446.2575, 4155
18:03:06.091510, 446.26, 4154
18:03:06.123616, 446.2625, 4153
18:03:06.123704, 446.265, 4173
18:03:06.123728, 446.2675, 4176
18:03:06.123761, 446.27, 4169
18:03:06.124146, 446.2725, 4138
18:03:06.124180, 446.275, 4193
18:03:06.124195, 446.2775, 4182
18:03:06.124210, 446.28, 4173
18:03:06.124481, 446.2825, 4194
18:03:06.124507, 446.285, 4177
18:03:06.124522, 446.2875, 4190
18:03:06.124538, 446.29, 4165
18:03:06.124553, 446.2925, 4192
18:03:06.124830, 446.295, 4175
18:03:06.124859, 446.2975, 4151
18:03:06.124874, 446.3, 4117
18:03:06.124889, 446.3025, 4196
18:03:06.136369, 446.305, 4203
18:03:06.136477, 446.3075, 4159
18:03:06.136534, 446.31, 4182
18:03:06.136582, 446.3125, 4179
18:03:06.159878, 446.315, 4153
18:03:06.159945, 446.3175, 4159
18:03:06.159999, 446.32, 4184
18:03:06.160022, 446.3225, 4167
18:03:06.160351, 446.325, 4057
18:03:06.160377, 446.3275, 4182
18:03:06.160392, 446.33, 4191
18:03:06.160407, 446.3325, 4156
18:03:06.161801, 446.335, 4167
18:03:06.161821, 446.3375, 4177
18:03:06.161836, 446.34, 4182
18:03:06.161851, 446.3425, 4133
18:03:06.171057, 446.345, 4182
18:03:06.171117, 446.3475, 4158
18:03:06.171231, 446.35, 4160
18:03:06.171270, 446.3525, 4170
18:03:06.199050, 446.355, 4193
18:03:06.199109, 446.3575, 4183
18:03:06.199131, 446.36, 4163
18:03:06.199151, 446.3625, 4197
18:03:06.199489, 446.365, 4186
18:03:06.199514, 446.3675, 4175
18:03:06.199530, 446.37, 4202
18:03:06.199545, 446.3725, 4195
18:03:06.199559, 446.375, 4195
18:03:06.205892, 446.3775, 4175
18:03:06.205929, 446.38, 4169
18:03:06.205949, 446.3825, 4179
18:03:06.205966, 446.385, 4177
18:03:06.226861, 446.3875, 4166
18:03:06.226974, 446.39, 4143
18:03:06.227030, 446.3925, 4145
18:03:06.227069, 446.395, 4121
18:03:06.227567, 446.3975, 4176
18:03:06.227602, 446.4, 4184
18:03:06.227623, 446.4025, 4157
18:03:06.227644, 446.405, 4159
18:03:06.257144, 446.4075, 4175
18:03:06.257229, 446.41, 4147
18:03:06.257253, 446.4125, 4126
18:03:06.257275, 446.415, 4175
18:03:06.257742, 446.4175, 4175
18:03:06.257786, 446.42, 4186
18:03:06.257804, 446.4225, 4175
18:03:06.257820, 446.425, 4198
18:03:06.258102, 446.4275, 4204
18:03:06.258131, 446.43, 4140
18:03:06.258147, 446.4325, 4174
18:03:06.258162, 446.435, 4169
18:03:06.258178, 446.4375, 4152
18:03:06.267419, 446.44, 4162
18:03:06.267517, 446.4425, 4168
18:03:06.267575, 446.445, 4179
18:03:06.267630, 446.4475, 4132
18:03:06.290645, 446.45, 4204
18:03:06.290773, 446.4525, 4173
18:03:06.290806, 446.455, 4183
18:03:06.290826, 446.4575, 4184
18:03:06.295216, 446.46, 4202
18:03:06.295259, 446.4625, 4203
18:03:06.295295, 446.465, 4138
18:03:06.295318, 446.4675, 4174
18:03:06.297081, 446.47, 4178
18:03:06.297157, 446.4725, 4164
18:03:06.297210, 446.475, 4164
18:03:06.297261, 446.4775, 4170
18:03:06.328233, 446.48, 4172
18:03:06.328315, 446.4825, 4016
18:03:06.328341, 446.485, 4186
18:03:06.328362, 446.4875, 4181
18:03:06.328687, 446.49, 4168
18:03:06.328712, 446.4925, 4165
18:03:06.328729, 446.495, 4182
18:03:06.328744, 446.4975, 4185
18:03:06.339900, 446.5, 4135
18:03:06.339958, 446.5025, 4195
18:03:06.339981, 446.505, 4171
18:03:06.340029, 446.5075, 4171
18:03:06.340050, 446.51, 4127
18:03:06.359682, 446.5125, 4156
18:03:06.359754, 446.515, 4122
18:03:06.359779, 446.5175, 4079
18:03:06.359800, 446.52, 4091
18:03:06.360229, 446.5225, 4121
18:03:06.360262, 446.525, 4128
18:03:06.360280, 446.5275, 4150
18:03:06.360296, 446.53, 4185
18:03:06.362946, 446.5325, 4195
18:03:06.362972, 446.535, 4118
18:03:06.362988, 446.5375, 4172
18:03:06.363002, 446.54, 4178
18:03:06.371705, 446.5425, 4192
18:03:06.371744, 446.545, 4189
18:03:06.371767, 446.5475, 4197
18:03:06.371782, 446.55, 4185
18:03:06.394475, 446.5525, 4148
18:03:06.394553, 446.555, 4209
18:03:06.394578, 446.5575, 4185
18:03:06.394598, 446.56, 4189
18:03:06.395011, 446.5625, 4197
18:03:06.395045, 446.565, 4208
18:03:06.395068, 446.5675, 4201
18:03:06.395089, 446.57, 4151
18:03:06.407990, 446.5725, 4204
18:03:06.408083, 446.575, 4192
18:03:06.408106, 446.5775, 4199
18:03:06.408122, 446.58, 4195
18:03:06.408142, 446.5825, 4226
18:03:06.438929, 446.585, 4222
18:03:06.439067, 446.5875, 4195
18:03:06.439101, 446.59, 4209
18:03:06.439160, 446.5925, 4212
18:03:06.458031, 446.595, 4180
18:03:06.458131, 446.5975, 4185
18:03:06.458157, 446.6, 4171
18:03:06.458176, 446.6025, 4198
18:03:06.458613, 446.605, 4173
18:03:06.458658, 446.6075, 4189
18:03:06.458676, 446.61, 4227
18:03:06.458692, 446.6125, 4235
18:03:06.458992, 446.615, 4316
18:03:06.459020, 446.6175, 4391
18:03:06.459035, 446.62, 4407
18:03:06.459049, 446.6225, 4301
18:03:06.461420, 446.625, 4493
18:03:06.461453, 446.6275, 4456
18:03:06.461469, 446.63, 4318
18:03:06.461484, 446.6325, 4111
18:03:06.462523, 446.635, 3890
18:03:06.462545, 446.6375, 3597
18:03:06.462561, 446.64, 3235
18:03:06.462576, 446.6425, 2943
18:03:06.495768, 446.645, 2512
18:03:06.495840, 446.6475, 1984
18:03:06.495879, 446.65, 1729
18:03:06.495935, 446.6525, 1607
18:03:06.496470, 446.655, 1774
18:03:06.496507, 446.6575, 2207
18:03:06.496537, 446.66, 3045
18:03:06.496567, 446.6625, 4077
18:03:06.496596, 446.665, 4787
18:03:06.505433, 446.6675, 5057
18:03:06.505500, 446.67, 5103
18:03:06.505535, 446.6725, 5044
18:03:06.505565, 446.675, 4841
18:03:06.526234, 446.6775, 4738
18:03:06.526334, 446.68, 4646
18:03:06.526388, 446.6825, 4611
18:03:06.526467, 446.685, 4568
18:03:06.527261, 446.6875, 4523
18:03:06.527323, 446.69, 4510
18:03:06.527364, 446.6925, 4347
18:03:06.527403, 446.695, 4524
18:03:06.528010, 446.6975, 4520
18:03:06.528057, 446.7, 4510
18:03:06.528094, 446.7025, 4505
18:03:06.528130, 446.705, 4502
18:03:06.560850, 446.7075, 4473
18:03:06.560950, 446.71, 4410
18:03:06.560990, 446.7125, 4452
18:03:06.561053, 446.715, 4430
18:03:06.561112, 446.7175, 4414
18:03:06.561734, 446.72, 4415
18:03:06.561771, 446.7225, 4426
18:03:06.561797, 446.725, 4408
18:03:06.561824, 446.7275, 4410
18:03:06.562269, 446.73, 4409
18:03:06.562302, 446.7325, 4385
18:03:06.562330, 446.735, 4353
18:03:06.562357, 446.7375, 4319
18:03:06.592085, 446.74, 4367
18:03:06.592203, 446.7425, 4315
18:03:06.592260, 446.745, 4265
18:03:06.592308, 446.7475, 4326
18:03:06.593100, 446.75, 4316
18:03:06.593160, 446.7525, 4320
18:03:06.593202, 446.755, 4303
18:03:06.593239, 446.7575, 4328
18:03:06.593850, 446.76, 4326
18:03:06.593903, 446.7625, 4136
18:03:06.593942, 446.765, 4291
18:03:06.594024, 446.7675, 4291
18:03:06.599342, 446.77, 4284
18:03:06.599386, 446.7725, 4294
18:03:06.599417, 446.775, 4265
18:03:06.599447, 446.7775, 4236
18:03:06.627733, 446.78, 4188
18:03:06.627805, 446.7825, 4218
18:03:06.627863, 446.785, 4213
18:03:06.627902, 446.7875, 4228
18:03:06.627938, 446.79, 4229
18:03:06.628485, 446.7925, 4246
18:03:06.628521, 446.795, 4256
18:03:06.628551, 446.7975, 4196
18:03:06.628580, 446.8, 4243
18:03:06.629043, 446.8025, 4260
18:03:06.629078, 446.805, 4240
18:03:06.629107, 446.8075, 4227
18:03:06.629134, 446.81, 4235
18:03:06.634349, 446.8125, 4240
18:03:06.634388, 446.815, 4168
18:03:06.634418, 446.8175, 4224
18:03:06.634448, 446.82, 4206
18:03:06.673963, 446.8225, 4199
18:03:06.674060, 446.825, 4211
18:03:06.674084, 446.8275, 4207
18:03:06.674104, 446.83, 4212
18:03:06.693164, 446.8325, 4193
18:03:06.693280, 446.835, 4194
18:03:06.693322, 446.8375, 4192
18:03:06.693376, 446.84, 4167
18:03:06.694126, 446.8425, 4176
18:03:06.694180, 446.845, 4162
18:03:06.694208, 446.8475, 4189
18:03:06.694234, 446.85, 4029
18:03:06.694754, 446.8525, 4205
18:03:06.694823, 446.855, 4196
18:03:06.694929, 446.8575, 4187
18:03:06.694981, 446.86, 4138
18:03:06.695652, 446.8625, 4239
18:03:06.695704, 446.865, 4224
18:03:06.695742, 446.8675, 4171
18:03:06.695779, 446.87, 4217
18:03:06.704155, 446.8725, 4234
18:03:06.704186, 446.875, 4197
18:03:06.704202, 446.8775, 4189
18:03:06.704216, 446.88, 4216
18:03:06.727867, 446.8825, 4208
18:03:06.727979, 446.885, 4169
18:03:06.728022, 446.8875, 4207
18:03:06.728060, 446.89, 4218
18:03:06.728096, 446.8925, 4176
18:03:06.732773, 446.895, 4173
18:03:06.732831, 446.8975, 4196
18:03:06.732860, 446.9, 4181
18:03:06.732888, 446.9025, 4146
18:03:06.734063, 446.905, 4205
18:03:06.734097, 446.9075, 4175
18:03:06.734120, 446.91, 4178
18:03:06.734139, 446.9125, 4155
18:03:06.739240, 446.915, 4166
18:03:06.739263, 446.9175, 4145
18:03:06.739278, 446.92, 4009
18:03:06.739293, 446.9225, 4191
18:03:06.762401, 446.925, 4187
18:03:06.762470, 446.9275, 4173
18:03:06.762494, 446.93, 4165
18:03:06.762515, 446.9325, 4140
18:03:06.765606, 446.935, 4132
18:03:06.765638, 446.9375, 4117
18:03:06.765656, 446.94, 4128
18:03:06.765672, 446.9425, 4140
18:03:06.765687, 446.945, 4110
18:03:06.775888, 446.9475, 4124
18:03:06.775933, 446.95, 4127
18:03:06.775955, 446.9525, 4138
18:03:06.799945, 446.955, 4103
18:03:06.800036, 446.9575, 4150
18:03:06.800070, 446.96, 4132
18:03:06.800098, 446.9625, 4155
18:03:06.800128, 446.965, 4155
18:03:06.803099, 446.9675, 4152
18:03:06.803184, 446.97, 4160
18:03:06.803235, 446.9725, 4136
18:03:06.803282, 446.975, 4188
18:03:06.804332, 446.9775, 4178
18:03:06.804392, 446.98, 4198
18:03:06.804440, 446.9825, 4207
18:03:06.804485, 446.985, 4229
18:03:06.835072, 446.9875, 4218
18:03:06.835222, 446.99, 4054
18:03:06.835265, 446.9925, 4242
18:03:06.835303, 446.995, 4232
18:03:06.836278, 446.9975, 4209
18:03:06.836354, 447.0, 4222
18:03:06.836405, 447.0025, 4231
18:03:06.836450, 447.005, 4244
18:03:06.836496, 447.0075, 4250
18:03:06.837327, 447.01, 4247
18:03:06.837389, 447.0125, 4244
18:03:06.837436, 447.015, 4225
18:03:06.837481, 447.0175, 4225
18:03:06.861165, 447.02, 4247
18:03:06.861309, 447.0225, 4224
18:03:06.861353, 447.025, 4184
18:03:06.861391, 447.0275, 4256
18:03:06.861933, 447.03, 4247
18:03:06.861988, 447.0325, 4239
18:03:06.862018, 447.035, 4248
18:03:06.862047, 447.0375, 4223
18:03:06.870536, 447.04, 4227
18:03:06.870629, 447.0425, 4192
18:03:06.870685, 447.045, 4230
18:03:06.870733, 447.0475, 4235
18:03:06.893778, 447.05, 4241
18:03:06.893867, 447.0525, 4228
18:03:06.893949, 447.055, 4198
18:03:06.893974, 447.0575, 4217
18:03:06.894300, 447.06, 4155
18:03:06.894329, 447.0625, 4212
18:03:06.894345, 447.065, 4212
18:03:06.894360, 447.0675, 4190
18:03:06.896952, 447.07, 4196
18:03:06.897004, 447.0725, 4187
18:03:06.897030, 447.075, 4173
18:03:06.897055, 447.0775, 4139
18:03:06.927294, 447.08, 4181
18:03:06.927402, 447.0825, 4176
18:03:06.927430, 447.085, 4176
18:03:06.927450, 447.0875, 4165
18:03:06.927470, 447.09, 4181
18:03:06.927823, 447.0925, 4155
18:03:06.927898, 447.095, 4139
18:03:06.927916, 447.0975, 4142
18:03:06.927932, 447.1, 4153
18:03:06.943966, 447.1025, 4170
18:03:06.944053, 447.105, 4188
18:03:06.944087, 447.1075, 4193
18:03:06.944118, 447.11, 4186
18:03:06.961957, 447.1125, 4133
18:03:06.962047, 447.115, 4184
18:03:06.962070, 447.1175, 4178
18:03:06.962125, 447.12, 4177
18:03:06.962501, 447.1225, 4167
18:03:06.962532, 447.125, 4164
18:03:06.962547, 447.1275, 4181
18:03:06.962561, 447.13, 4017
18:03:06.969351, 447.1325, 4181
18:03:06.969435, 447.135, 4176
18:03:06.969486, 447.1375, 4197
18:03:06.969532, 447.14, 4199
18:03:06.970527, 447.1425, 4209
18:03:06.970592, 447.145, 4186
18:03:06.970640, 447.1475, 4121
18:03:06.970685, 447.15, 4154
18:03:06.970731, 447.1525, 4143
18:03:07.008978, 447.155, 4144
18:03:07.009049, 447.1575, 4159
18:03:07.009122, 447.16, 4192
18:03:07.009183, 447.1625, 4190
18:03:07.009651, 447.165, 4167
18:03:07.009718, 447.1675, 4159
18:03:07.009745, 447.17, 4145
18:03:07.009772, 447.1725, 4155
18:03:07.011949, 447.175, 4152
18:03:07.012002, 447.1775, 4145
18:03:07.012038, 447.18, 4161
18:03:07.012067, 447.1825, 4126
18:03:07.030136, 447.185, 4171
18:03:07.030223, 447.1875, 4171
18:03:07.030331, 447.19, 4148
18:03:07.030384, 447.1925, 4148
18:03:07.052129, 447.195, 4156
18:03:07.052173, 447.1975, 4160
18:03:07.052194, 447.2, 4123
18:03:07.052221, 447.2025, 4166
18:03:07.052572, 447.205, 4171
18:03:07.052599, 447.2075, 4159
18:03:07.052614, 447.21, 4172
18:03:07.052628, 447.2125, 4176
18:03:07.057456, 447.215, 4174
18:03:07.057597, 447.2175, 4117
18:03:07.057707, 447.22, 4167
18:03:07.057808, 447.2225, 4164
18:03:07.059417, 447.225, 4174
18:03:07.059461, 447.2275, 4156
18:03:07.059530, 447.23, 4173
18:03:07.059552, 447.2325, 4151
18:03:07.059572, 447.235, 4141
18:03:07.081286, 447.2375, 4160
18:03:07.081364, 447.24, 4176
18:03:07.081391, 447.2425, 4163
18:03:07.081417, 447.245, 4170
18:03:07.081857, 447.2475, 4184
18:03:07.081884, 447.25, 4180
18:03:07.081903, 447.2525, 4120
18:03:07.081922, 447.255, 4187
18:03:07.089518, 447.2575, 4167
18:03:07.089557, 447.26, 4158
18:03:07.089572, 447.2625, 4171
18:03:07.089586, 447.265, 4158
18:03:07.114574, 447.2675, 4167
18:03:07.114671, 447.27, 3988
18:03:07.114697, 447.2725, 4169
18:03:07.114718, 447.275, 4152
18:03:07.115148, 447.2775, 4147
18:03:07.115181, 447.28, 4181
18:03:07.115202, 447.2825, 4154
18:03:07.115223, 447.285, 4153
18:03:07.127765, 447.2875, 4106
18:03:07.127864, 447.29, 4182
18:03:07.127888, 447.2925, 4163
18:03:07.127904, 447.295, 4170
18:03:07.148080, 447.2975, 4168
18:03:07.148146, 447.3, 4193
18:03:07.148173, 447.3025, 4177
18:03:07.148198, 447.305, 4128
18:03:07.151699, 447.3075, 4193
18:03:07.151796, 447.31, 4173
18:03:07.151843, 447.3125, 4166
18:03:07.151885, 447.315, 4120
18:03:07.180955, 447.3175, 4192
18:03:07.181070, 447.32, 4177
18:03:07.181122, 447.3225, 4122
18:03:07.181151, 447.325, 4181
18:03:07.181507, 447.3275, 4168
18:03:07.181534, 447.33, 4168
18:03:07.181550, 447.3325, 4168
18:03:07.181565, 447.335, 4174
18:03:07.181581, 447.3375, 4174
18:03:07.181854, 447.34, 4025
18:03:07.181874, 447.3425, 4196
18:03:07.181891, 447.345, 4190
18:03:07.181906, 447.3475, 4176
18:03:07.182174, 447.35, 4174
18:03:07.182194, 447.3525, 4208
18:03:07.182210, 447.355, 4209
18:03:07.182226, 447.3575, 4127
18:03:07.217083, 447.36, 4181
18:03:07.217146, 447.3625, 4183
18:03:07.217169, 447.365, 4164
18:03:07.217206, 447.3675, 4147
18:03:07.217554, 447.37, 4173
18:03:07.217580, 447.3725, 4159
18:03:07.217595, 447.375, 4139
18:03:07.217610, 447.3775, 4144
18:03:07.223314, 447.38, 4147
18:03:07.223404, 447.3825, 4141
18:03:07.223459, 447.385, 4120
18:03:07.223510, 447.3875, 4145
18:03:07.224495, 447.39, 4134
18:03:07.224561, 447.3925, 4108
18:03:07.224613, 447.395, 4132
18:03:07.224664, 447.3975, 4121
18:03:07.224715, 447.4, 4119
18:03:07.248009, 447.4025, 4113
18:03:07.248099, 447.405, 4137
18:03:07.248129, 447.4075, 4121
18:03:07.248157, 447.41, 3996
18:03:07.248626, 447.4125, 4157
18:03:07.248656, 447.415, 4131
18:03:07.248677, 447.4175, 4118
18:03:07.248697, 447.42, 4127
18:03:07.280172, 447.4225, 4121
18:03:07.280284, 447.425, 4113
18:03:07.280337, 447.4275, 3983
18:03:07.280365, 447.43, 4144
18:03:07.280931, 447.4325, 4134
18:03:07.280974, 447.435, 4103
18:03:07.280998, 447.4375, 4095
18:03:07.281021, 447.44, 4116
18:03:07.312832, 447.4425, 4121
18:03:07.312924, 447.445, 4105
18:03:07.312950, 447.4475, 4104
18:03:07.312972, 447.45, 4115
18:03:07.313353, 447.4525, 4099
18:03:07.313386, 447.455, 4120
18:03:07.313402, 447.4575, 4117
18:03:07.313416, 447.46, 4105
18:03:07.313431, 447.4625, 4102
18:03:07.313705, 447.465, 4120
18:03:07.313732, 447.4675, 4120
18:03:07.313748, 447.47, 4126
18:03:07.313763, 447.4725, 4097
18:03:07.314027, 447.475, 4114
18:03:07.314049, 447.4775, 4107
18:03:07.314065, 447.48, 3954
18:03:07.314080, 447.4825, 4142
18:03:07.314345, 447.485, 4147
18:03:07.314367, 447.4875, 4135
18:03:07.314382, 447.49, 4140
18:03:07.314397, 447.4925, 4147
18:03:07.349133, 447.495, 4156
18:03:07.349200, 447.4975, 3993
18:03:07.349224, 447.5, 4174
18:03:07.349245, 447.5025, 4167
18:03:07.349595, 447.505, 4138
18:03:07.349617, 447.5075, 4155
18:03:07.349633, 447.51, 4163
18:03:07.349649, 447.5125, 4159
18:03:07.349917, 447.515, 4129
18:03:07.349937, 447.5175, 4162
18:03:07.349952, 447.52, 4169
18:03:07.349967, 447.5225, 4161
18:03:07.380360, 447.525, 4145
18:03:07.380449, 447.5275, 4178
18:03:07.380473, 447.53, 4165
18:03:07.380506, 447.5325, 4021
18:03:07.380929, 447.535, 4198
18:03:07.380965, 447.5375, 4197
18:03:07.380982, 447.54, 4184
18:03:07.380997, 447.5425, 4193
18:03:07.381012, 447.545, 4186
18:03:07.388792, 447.5475, 4168
18:03:07.388840, 447.55, 3990
18:03:07.388857, 447.5525, 4166
18:03:07.388872, 447.555, 4167
18:03:07.390007, 447.5575, 4181
18:03:07.390027, 447.56, 4179
18:03:07.390043, 447.5625, 4178
18:03:07.390058, 447.565, 4162
18:03:07.416574, 447.5675, 4117
18:03:07.416638, 447.57, 4170
18:03:07.416661, 447.5725, 4167
18:03:07.416681, 447.575, 4176
18:03:07.417020, 447.5775, 4172
18:03:07.417042, 447.58, 4208
18:03:07.417057, 447.5825, 4211
18:03:07.417072, 447.585, 4188
18:03:07.417331, 447.5875, 4207
18:03:07.417351, 447.59, 4157
18:03:07.417366, 447.5925, 4182
18:03:07.417380, 447.595, 4178
18:03:07.449246, 447.5975, 4190
18:03:07.449337, 447.6, 4178
18:03:07.449378, 447.6025, 4154
18:03:07.449413, 447.605, 4224
18:03:07.450359, 447.6075, 4227
18:03:07.450395, 447.61, 4194
18:03:07.450424, 447.6125, 4213
18:03:07.450454, 447.615, 4190
18:03:07.450482, 447.6175, 4137
18:03:07.451571, 447.62, 4085
18:03:07.451608, 447.6225, 4118
18:03:07.451638, 447.625, 4109
18:03:07.451668, 447.6275, 4085
18:03:07.483365, 447.63, 4105
18:03:07.483452, 447.6325, 4151
18:03:07.483492, 447.635, 4139
18:03:07.483529, 447.6375, 3978
18:03:07.484047, 447.64, 4159
18:03:07.484083, 447.6425, 4173
18:03:07.484111, 447.645, 4182
18:03:07.484137, 447.6475, 4189
18:03:07.484582, 447.65, 4187
18:03:07.484615, 447.6525, 4183
18:03:07.484644, 447.655, 4159
18:03:07.484672, 447.6575, 4170
18:03:07.492970, 447.66, 4181
18:03:07.493064, 447.6625, 4177
18:03:07.493134, 447.665, 4131
18:03:07.493172, 447.6675, 4202
18:03:07.516196, 447.67, 4210
18:03:07.516280, 447.6725, 4183
18:03:07.516307, 447.675, 4193
18:03:07.516329, 447.6775, 4192
18:03:07.516350, 447.68, 4199
18:03:07.520032, 447.6825, 4205
18:03:07.520064, 447.685, 4214
18:03:07.520081, 447.6875, 4202
18:03:07.520096, 447.69, 4158
18:03:07.521266, 447.6925, 4224
18:03:07.521289, 447.695, 4210
18:03:07.521305, 447.6975, 4182
18:03:07.521319, 447.7, 4182
18:03:07.549852, 447.7025, 4184
18:03:07.549917, 447.705, 4231
18:03:07.549940, 447.7075, 4037
18:03:07.549961, 447.71, 4213
18:03:07.550298, 447.7125, 4184
18:03:07.550321, 447.715, 4191
18:03:07.550336, 447.7175, 4217
18:03:07.550351, 447.72, 4278
18:03:07.565429, 447.7225, 4367
18:03:07.565499, 447.725, 4363
18:03:07.565535, 447.7275, 4433
18:03:07.565564, 447.73, 4475
18:03:07.566024, 447.7325, 4520
18:03:07.566067, 447.735, 4477
18:03:07.566089, 447.7375, 4329
18:03:07.566111, 447.74, 4094
18:03:07.593537, 447.7425, 3839
18:03:07.593623, 447.745, 3492
18:03:07.593656, 447.7475, 3149
18:03:07.593728, 447.75, 2735
18:03:07.596577, 447.7525, 2200
18:03:07.596628, 447.755, 1767
18:03:07.596647, 447.7575, 1532
18:03:07.596667, 447.76, 1572
18:03:07.596727, 447.7625, 1873
18:03:07.616809, 447.765, 2626
18:03:07.616909, 447.7675, 3557
18:03:07.616942, 447.77, 4347
18:03:07.617063, 447.7725, 4800
18:03:07.617611, 447.775, 4953
18:03:07.617647, 447.7775, 4743
18:03:07.617671, 447.78, 4794
18:03:07.617692, 447.7825, 4660
18:03:07.618057, 447.785, 4563
18:03:07.618085, 447.7875, 4563
18:03:07.618106, 447.79, 4530
18:03:07.618126, 447.7925, 4502
18:03:07.647464, 447.795, 4453
18:03:07.647579, 447.7975, 4520
18:03:07.647613, 447.8, 4527
18:03:07.647641, 447.8025, 4527
18:03:07.648169, 447.805, 4522
18:03:07.648228, 447.8075, 4533
18:03:07.648253, 447.81, 4535
18:03:07.648273, 447.8125, 4519
18:03:07.648717, 447.815, 4505
18:03:07.648753, 447.8175, 4495
18:03:07.648773, 447.82, 4470
18:03:07.648792, 447.8225, 4479
18:03:07.657775, 447.825, 4494
18:03:07.657821, 447.8275, 4496
18:03:07.657838, 447.83, 4313
18:03:07.657852, 447.8325, 4475
18:03:07.681428, 447.835, 4474
18:03:07.681536, 447.8375, 4438
18:03:07.681570, 447.84, 4437
18:03:07.681601, 447.8425, 4415
18:03:07.681629, 447.845, 4428
18:03:07.682181, 447.8475, 4365
18:03:07.682239, 447.85, 4385
18:03:07.682262, 447.8525, 4388
18:03:07.682285, 447.855, 4373
18:03:07.684258, 447.8575, 4365
18:03:07.684298, 447.86, 4372
18:03:07.684320, 447.8625, 4373
18:03:07.684341, 447.865, 4203
18:03:07.719701, 447.8675, 4392
18:03:07.719792, 447.87, 4347
18:03:07.719885, 447.8725, 4326
18:03:07.719934, 447.875, 4304
18:03:07.720404, 447.8775, 4308
18:03:07.720436, 447.88, 4311
18:03:07.720459, 447.8825, 4285
18:03:07.720481, 447.885, 4328
18:03:07.720864, 447.8875, 4301
18:03:07.720892, 447.89, 4289
18:03:07.720914, 447.8925, 4274
18:03:07.720935, 447.895, 4305
18:03:07.728226, 447.8975, 4280
18:03:07.728318, 447.9, 4121
18:03:07.728363, 447.9025, 4277
18:03:07.728397, 447.905, 4281
18:03:07.728432, 447.9075, 4254
18:03:07.757580, 447.91, 4254
18:03:07.757657, 447.9125, 4267
18:03:07.757686, 447.915, 4251
18:03:07.757710, 447.9175, 4192
18:03:07.758667, 447.92, 4237
18:03:07.758701, 447.9225, 4229
18:03:07.758726, 447.925, 4226
18:03:07.758750, 447.9275, 4233
18:03:07.782005, 447.93, 4229
18:03:07.782125, 447.9325, 4230
18:03:07.782155, 447.935, 4151
18:03:07.782177, 447.9375, 4247
18:03:07.782578, 447.94, 4233
18:03:07.782629, 447.9425, 4212
18:03:07.782664, 447.945, 4175
18:03:07.782679, 447.9475, 4245
18:03:07.815256, 447.95, 4243
18:03:07.815328, 447.9525, 4080
18:03:07.815360, 447.955, 4226
18:03:07.815385, 447.9575, 4235
18:03:07.815917, 447.96, 4224
18:03:07.815962, 447.9625, 4232
18:03:07.815984, 447.965, 4241
18:03:07.816003, 447.9675, 4222
18:03:07.816486, 447.97, 4169
18:03:07.816534, 447.9725, 4220
18:03:07.816563, 447.975, 4224
18:03:07.816595, 447.9775, 4238
18:03:07.817120, 447.98, 4256
18:03:07.817152, 447.9825, 4221
18:03:07.817173, 447.985, 4224
18:03:07.817194, 447.9875, 4064
18:03:07.817215, 447.99, 4233
18:03:07.817568, 447.9925, 4259
18:03:07.817594, 447.995, 4237
18:03:07.817614, 447.9975, 4240
18:03:07.817634, 448.0, 4236
18:03:07.848788, 448.0025, 4224
18:03:07.848876, 448.005, 4172
18:03:07.848909, 448.0075, 4225
18:03:07.849004, 448.01, 4200
18:03:07.849358, 448.0125, 4192
18:03:07.849390, 448.015, 4188
18:03:07.849407, 448.0175, 4191
18:03:07.849423, 448.02, 4166
18:03:07.886778, 448.0225, 4121
18:03:07.886902, 448.025, 4186
18:03:07.886962, 448.0275, 4175
18:03:07.886998, 448.03, 4136
18:03:07.887584, 448.0325, 4151
18:03:07.887624, 448.035, 4151
18:03:07.887652, 448.0375, 4163
18:03:07.887679, 448.04, 4144
18:03:07.887706, 448.0425, 4149
18:03:07.888185, 448.045, 4119
18:03:07.888220, 448.0475, 4093
18:03:07.888248, 448.05, 4106
18:03:07.888274, 448.0525, 4080
18:03:07.888764, 448.055, 4094
18:03:07.888800, 448.0575, 3937
18:03:07.888828, 448.06, 4127
18:03:07.888856, 448.0625, 4113
18:03:07.895454, 448.065, 4101
18:03:07.895513, 448.0675, 4126
18:03:07.895551, 448.07, 4126
18:03:07.895588, 448.0725, 4135
18:03:07.918378, 448.075, 4106
18:03:07.918471, 448.0775, 4128
18:03:07.918547, 448.08, 4116
18:03:07.918597, 448.0825, 4140
18:03:07.919429, 448.085, 4137
18:03:07.919502, 448.0875, 4158
18:03:07.919552, 448.09, 4166
18:03:07.919597, 448.0925, 4163
18:03:07.951101, 448.095, 4182
18:03:07.951191, 448.0975, 4185
18:03:07.951218, 448.1, 4179
18:03:07.951239, 448.1025, 4198
18:03:07.951614, 448.105, 4215
18:03:07.951642, 448.1075, 4200
18:03:07.951658, 448.11, 4182
18:03:07.951672, 448.1125, 4203
18:03:07.951687, 448.115, 4213
18:03:07.958045, 448.1175, 4214
18:03:07.958109, 448.12, 4253
18:03:07.958149, 448.1225, 4245
18:03:07.958185, 448.125, 4227
18:03:07.959276, 448.1275, 4058
18:03:07.959326, 448.13, 4243
18:03:07.959363, 448.1325, 4207
18:03:07.959400, 448.135, 4187
18:03:07.964913, 448.1375, 4215
18:03:07.964974, 448.14, 4195
18:03:07.964996, 448.1425, 4176
18:03:07.965022, 448.145, 4034
18:03:07.985114, 448.1475, 4201
18:03:07.985191, 448.15, 4194
18:03:07.985233, 448.1525, 4208
18:03:07.985271, 448.155, 4182
18:03:07.985888, 448.1575, 4183
18:03:07.985931, 448.16, 4191
18:03:07.985960, 448.1625, 4171
18:03:07.985986, 448.165, 4193
18:03:07.990504, 448.1675, 4193
18:03:07.990526, 448.17, 4180
18:03:07.990541, 448.1725, 4176
18:03:07.990555, 448.175, 4167
18:03:08.029516, 448.1775, 4184
18:03:08.029591, 448.18, 4128
18:03:08.029623, 448.1825, 4193
18:03:08.029653, 448.185, 4166
18:03:08.029684, 448.1875, 4145
18:03:08.030189, 448.19, 4144
18:03:08.030223, 448.1925, 4166
18:03:08.030252, 448.195, 4146
18:03:08.031853, 448.1975, 4105
18:03:08.031911, 448.2, 4189
18:03:08.031943, 448.2025, 4136
18:03:08.032351, 448.205, 4134
18:03:08.032399, 448.2075, 4144
18:03:08.053545, 448.21, 4156
18:03:08.053648, 448.2125, 4140
18:03:08.053705, 448.215, 4096
18:03:08.053759, 448.2175, 4175
18:03:08.054586, 448.22, 4164
18:03:08.054634, 448.2225, 4135
18:03:08.054676, 448.225, 4136
18:03:08.054712, 448.2275, 4134
18:03:08.060648, 448.23, 4142
18:03:08.060693, 448.2325, 3981
18:03:08.060717, 448.235, 4166
18:03:08.060741, 448.2375, 4144
18:03:08.083183, 448.24, 4138
18:03:08.083273, 448.2425, 4167
18:03:08.083310, 448.245, 4177
18:03:08.083343, 448.2475, 4155
18:03:08.083904, 448.25, 4107
18:03:08.083949, 448.2525, 4162
18:03:08.083974, 448.255, 4150
18:03:08.083998, 448.2575, 4148
18:03:08.132494, 448.26, 4156
18:03:08.132544, 448.2625, 4194
18:03:08.132565, 448.265, 4193
18:03:08.132584, 448.2675, 4028
18:03:08.133738, 448.27, 4214
18:03:08.133782, 448.2725, 4220
18:03:08.133802, 448.275, 4187
18:03:08.133821, 448.2775, 4205
18:03:08.152060, 448.28, 4202
18:03:08.152135, 448.2825, 4198
18:03:08.152239, 448.285, 4128
18:03:08.152292, 448.2875, 4221
18:03:08.152333, 448.29, 4213
18:03:08.152731, 448.2925, 4194
18:03:08.152767, 448.295, 4169
18:03:08.152788, 448.2975, 4198
18:03:08.152808, 448.3, 4191
18:03:08.153156, 448.3025, 4100
18:03:08.153184, 448.305, 4182
18:03:08.153204, 448.3075, 4192
18:03:08.153223, 448.31, 4174
18:03:08.153564, 448.3125, 4017
18:03:08.153589, 448.315, 4205
18:03:08.153608, 448.3175, 4206
18:03:08.153628, 448.32, 4150
18:03:08.153968, 448.3225, 4196
18:03:08.153992, 448.325, 4186
18:03:08.154011, 448.3275, 4165
18:03:08.154031, 448.33, 4168
18:03:08.156699, 448.3325, 4177
18:03:08.156730, 448.335, 4184
18:03:08.156750, 448.3375, 3999
18:03:08.156768, 448.34, 4183
18:03:08.188365, 448.3425, 4185
18:03:08.188424, 448.345, 4168
18:03:08.188447, 448.3475, 4191
18:03:08.188493, 448.35, 4180
18:03:08.194562, 448.3525, 4169
18:03:08.194630, 448.355, 4126
18:03:08.194670, 448.3575, 4170
18:03:08.194707, 448.36, 4146
18:03:08.194744, 448.3625, 4150
18:03:08.195773, 448.365, 4152
18:03:08.195828, 448.3675, 4140
18:03:08.195867, 448.37, 4148
18:03:08.195904, 448.3725, 3995
18:03:08.218284, 448.375, 4170
18:03:08.218385, 448.3775, 4170
18:03:08.218419, 448.38, 4146
18:03:08.218448, 448.3825, 4155
18:03:08.218977, 448.385, 4177
18:03:08.219023, 448.3875, 4155
18:03:08.219044, 448.39, 4115
18:03:08.219064, 448.3925, 4184
18:03:08.219405, 448.395, 4166
18:03:08.219436, 448.3975, 4137
18:03:08.219455, 448.4, 4156
18:03:08.219473, 448.4025, 4174
18:03:08.293066, 448.405, 4152
18:03:08.293165, 448.4075, 4099
18:03:08.293187, 448.41, 4177
18:03:08.293224, 448.4125, 4160
18:03:08.293252, 448.415, 4173
18:03:08.293508, 448.4175, 4171
18:03:08.293528, 448.42, 4169
18:03:08.293541, 448.4225, 4144
18:03:08.293791, 448.425, 4096
18:03:08.293809, 448.4275, 4177
18:03:08.293823, 448.43, 4146
18:03:08.293836, 448.4325, 4132
18:03:08.293850, 448.435, 4158
18:03:08.294090, 448.4375, 4152
18:03:08.294108, 448.44, 4186
18:03:08.294122, 448.4425, 4122
18:03:08.294135, 448.445, 4186
18:03:08.294378, 448.4475, 4182
18:03:08.294395, 448.45, 4196
18:03:08.294409, 448.4525, 4038
18:03:08.294422, 448.455, 4213
18:03:08.298662, 448.4575, 4229
18:03:08.298709, 448.46, 4214
18:03:08.298781, 448.4625, 4206
18:03:08.298816, 448.465, 4212
18:03:08.330526, 448.4675, 4199
18:03:08.330583, 448.47, 4211
18:03:08.330644, 448.4725, 4201
18:03:08.330670, 448.475, 4203
18:03:08.331061, 448.4775, 4147
18:03:08.331092, 448.48, 4215
18:03:08.331112, 448.4825, 4202
18:03:08.331132, 448.485, 4221
18:03:08.352428, 448.4875, 4191
18:03:08.352588, 448.49, 4209
18:03:08.352626, 448.4925, 4180
18:03:08.352657, 448.495, 4044
18:03:08.353172, 448.4975, 4208
18:03:08.353214, 448.5, 4217
18:03:08.353237, 448.5025, 4209
18:03:08.353259, 448.505, 4232
18:03:08.353649, 448.5075, 4228
18:03:08.353678, 448.51, 4214
18:03:08.353700, 448.5125, 4067
18:03:08.353721, 448.515, 4232
18:03:08.354100, 448.5175, 4230
18:03:08.354128, 448.52, 4227
18:03:08.354150, 448.5225, 4162
18:03:08.354171, 448.525, 4234
18:03:08.358003, 448.5275, 4215
18:03:08.358036, 448.53, 4204
18:03:08.358070, 448.5325, 4228
18:03:08.358126, 448.535, 4208
18:03:08.367389, 448.5375, 4171
18:03:08.367484, 448.54, 4178
18:03:08.367504, 448.5425, 4171
18:03:08.367520, 448.545, 4166
18:03:08.367536, 448.5475, 4160
18:03:08.384861, 448.55, 4181
18:03:08.384966, 448.5525, 4188
18:03:08.385002, 448.555, 4145
18:03:08.385032, 448.5575, 4156
18:03:08.385635, 448.56, 4176
18:03:08.385686, 448.5625, 4196
18:03:08.385711, 448.565, 4147
18:03:08.385735, 448.5675, 4200
18:03:08.393111, 448.57, 4181
18:03:08.393182, 448.5725, 4169
18:03:08.393218, 448.575, 4171
18:03:08.393251, 448.5775, 4184
18:03:08.422114, 448.58, 4179
18:03:08.422168, 448.5825, 4122
18:03:08.422189, 448.585, 4190
18:03:08.422306, 448.5875, 4193
18:03:08.422606, 448.59, 4175
18:03:08.422627, 448.5925, 4185
18:03:08.422642, 448.595, 4171
18:03:08.422656, 448.5975, 4174
18:03:08.428297, 448.6, 4127
18:03:08.428375, 448.6025, 4184
18:03:08.428416, 448.605, 4206
18:03:08.428453, 448.6075, 4188
18:03:08.428490, 448.61, 4191
18:03:08.452651, 448.6125, 4219
18:03:08.452743, 448.615, 4194
18:03:08.452792, 448.6175, 4153
18:03:08.452815, 448.62, 4223
18:03:08.453163, 448.6225, 4206
18:03:08.453195, 448.625, 4187
18:03:08.453212, 448.6275, 4198
18:03:08.453227, 448.63, 4192
18:03:08.489578, 448.6325, 4187
18:03:08.489640, 448.635, 4013
18:03:08.489695, 448.6375, 4204
18:03:08.489718, 448.64, 4183
18:03:08.490032, 448.6425, 4179
18:03:08.490054, 448.645, 4178
18:03:08.490070, 448.6475, 4181
18:03:08.490085, 448.65, 4186
18:03:08.490353, 448.6525, 4114
18:03:08.490373, 448.655, 4149
18:03:08.490388, 448.6575, 4187
18:03:08.490404, 448.66, 4182
18:03:08.490669, 448.6625, 4183
18:03:08.490689, 448.665, 4213
18:03:08.490704, 448.6675, 4162
18:03:08.490725, 448.67, 4125
18:03:08.522442, 448.6725, 4175
18:03:08.522502, 448.675, 4138
18:03:08.522525, 448.6775, 4112
18:03:08.522545, 448.68, 4121
18:03:08.522886, 448.6825, 4113
18:03:08.522908, 448.685, 4067
18:03:08.522923, 448.6875, 4051
18:03:08.522939, 448.69, 4101
18:03:08.522953, 448.6925, 4110
18:03:08.554363, 448.695, 4114
18:03:08.554419, 448.6975, 4154
18:03:08.554440, 448.7, 4126
18:03:08.554459, 448.7025, 4130
18:03:08.554795, 448.705, 3962
18:03:08.554816, 448.7075, 4160
18:03:08.554831, 448.71, 4173
18:03:08.554868, 448.7125, 4173
18:03:08.555129, 448.715, 4179
18:03:08.555149, 448.7175, 4175
18:03:08.555163, 448.72, 4187
18:03:08.555177, 448.7225, 4022
18:03:08.555426, 448.725, 4194
18:03:08.555444, 448.7275, 4179
18:03:08.555458, 448.73, 4184
18:03:08.555472, 448.7325, 4178
18:03:08.589938, 448.735, 4197
18:03:08.590013, 448.7375, 4192
18:03:08.590043, 448.74, 4146
18:03:08.590068, 448.7425, 4207
18:03:08.594765, 448.745, 4186
18:03:08.594886, 448.7475, 4177
18:03:08.594945, 448.75, 4199
18:03:08.594997, 448.7525, 4196
18:03:08.596088, 448.755, 4196
18:03:08.596156, 448.7575, 4176
18:03:08.596176, 448.76, 4198
18:03:08.596195, 448.7625, 4191
18:03:08.596946, 448.765, 4197
18:03:08.597031, 448.7675, 4205
18:03:08.597053, 448.77, 4205
18:03:08.597072, 448.7725, 4180
18:03:08.597091, 448.775, 4043
18:03:08.603657, 448.7775, 4239
18:03:08.603719, 448.78, 4304
18:03:08.603739, 448.7825, 4369
18:03:08.603758, 448.785, 4402
18:03:08.621406, 448.7875, 4443
18:03:08.621468, 448.79, 4482
18:03:08.621499, 448.7925, 4412
18:03:08.621517, 448.795, 4295
18:03:08.621861, 448.7975, 4069
18:03:08.621881, 448.8, 3824
18:03:08.621896, 448.8025, 3559
18:03:08.621910, 448.805, 3279
18:03:08.629672, 448.8075, 2913
18:03:08.629774, 448.81, 2431
18:03:08.629830, 448.8125, 2028
18:03:08.629882, 448.815, 1785
18:03:08.656972, 448.8175, 1670
18:03:08.657032, 448.82, 1885
18:03:08.657055, 448.8225, 2330
18:03:08.657075, 448.825, 3146
18:03:08.657416, 448.8275, 4167
18:03:08.657443, 448.83, 4858
18:03:08.657459, 448.8325, 5118
18:03:08.657474, 448.835, 5133
18:03:08.664381, 448.8375, 5072
18:03:08.664449, 448.84, 4902
18:03:08.664487, 448.8425, 4756
18:03:08.664521, 448.845, 4605
18:03:08.689232, 448.8475, 4614
18:03:08.689312, 448.85, 4549
18:03:08.689346, 448.8525, 4488
18:03:08.689374, 448.855, 4473
18:03:08.689854, 448.8575, 4492
18:03:08.689884, 448.86, 4505
18:03:08.689906, 448.8625, 4463
18:03:08.689926, 448.865, 4514
18:03:08.699878, 448.8675, 4515
18:03:08.699906, 448.87, 4481
18:03:08.699921, 448.8725, 4494
18:03:08.699935, 448.875, 4506
18:03:08.721919, 448.8775, 4479
18:03:08.721984, 448.88, 4439
18:03:08.722007, 448.8825, 4446
18:03:08.722029, 448.885, 4438
18:03:08.722049, 448.8875, 4414
18:03:08.722429, 448.89, 4405
18:03:08.722461, 448.8925, 4432
18:03:08.722477, 448.895, 4395
18:03:08.722493, 448.8975, 4323
18:03:08.725399, 448.9, 4382
18:03:08.725427, 448.9025, 4359
18:03:08.725443, 448.905, 4339
18:03:08.725458, 448.9075, 4324
18:03:08.735072, 448.91, 4329
18:03:08.735136, 448.9125, 4329
18:03:08.735186, 448.915, 4294
18:03:08.735261, 448.9175, 4326
18:03:08.754973, 448.92, 4296
18:03:08.755085, 448.9225, 4296
18:03:08.755139, 448.925, 4289
18:03:08.755177, 448.9275, 4289
18:03:08.760510, 448.93, 4291
18:03:08.760569, 448.9325, 4241
18:03:08.760599, 448.935, 4280
18:03:08.760627, 448.9375, 4281
18:03:08.770150, 448.94, 4241
18:03:08.770243, 448.9425, 4241
18:03:08.770267, 448.945, 4246
18:03:08.770297, 448.9475, 4222
18:03:08.787803, 448.95, 4198
18:03:08.787884, 448.9525, 4241
18:03:08.787906, 448.955, 4238
18:03:08.787926, 448.9575, 4219
18:03:08.787958, 448.96, 4233
18:03:08.788384, 448.9625, 4239
18:03:08.788418, 448.965, 4236
18:03:08.788434, 448.9675, 4196
18:03:08.788449, 448.97, 4222
18:03:08.796000, 448.9725, 4227
18:03:08.796087, 448.975, 4206
18:03:08.796133, 448.9775, 4224
18:03:08.796174, 448.98, 4241
18:03:08.854209, 448.9825, 4240
18:03:08.854311, 448.985, 4178
18:03:08.854338, 448.9875, 4220
18:03:08.854360, 448.99, 4228
18:03:08.854731, 448.9925, 4231
18:03:08.854766, 448.995, 4240
18:03:08.854782, 448.9975, 4214
18:03:08.854798, 449.0, 4208
18:03:08.855149, 449.0025, 4152
18:03:08.855189, 449.005, 4203
18:03:08.855209, 449.0075, 4217
18:03:08.855228, 449.01, 4197
18:03:08.855247, 449.0125, 4201
18:03:08.855586, 449.015, 4200
18:03:08.855616, 449.0175, 4157
18:03:08.855636, 449.02, 4024
18:03:08.855655, 449.0225, 4195
18:03:08.855986, 449.025, 4220
18:03:08.856010, 449.0275, 4199
18:03:08.856029, 449.03, 4204
18:03:08.856047, 449.0325, 4183
18:03:08.865242, 449.035, 4187
18:03:08.865269, 449.0375, 4133
18:03:08.865284, 449.04, 4192
18:03:08.865298, 449.0425, 4199
18:03:08.888161, 449.045, 4188
18:03:08.888278, 449.0475, 4180
18:03:08.888314, 449.05, 4171
18:03:08.888344, 449.0525, 4179
18:03:08.888939, 449.055, 4152
18:03:08.888988, 449.0575, 4199
18:03:08.889012, 449.06, 4175
18:03:08.889084, 449.0625, 4166
18:03:08.903808, 449.065, 4182
18:03:08.903951, 449.0675, 4180
18:03:08.903975, 449.07, 4178
18:03:08.903995, 449.0725, 4019
18:03:08.905809, 449.075, 4188
18:03:08.905877, 449.0775, 4201
18:03:08.905899, 449.08, 4199
18:03:08.905918, 449.0825, 4156
18:03:08.922595, 449.085, 4167
18:03:08.922662, 449.0875, 4155
18:03:08.922689, 449.09, 3986
18:03:08.922709, 449.0925, 4162
18:03:08.926942, 449.095, 4162
18:03:08.927038, 449.0975, 4151
18:03:08.927095, 449.1, 4169
18:03:08.927147, 449.1025, 4154
18:03:08.936442, 449.105, 4172
18:03:08.936487, 449.1075, 4127
18:03:08.936506, 449.11, 4153
18:03:08.936524, 449.1125, 4140
18:03:08.936543, 449.115, 4149
18:03:08.957592, 449.1175, 4146
18:03:08.957639, 449.12, 4138
18:03:08.957692, 449.1225, 4155
18:03:08.957714, 449.125, 4101
18:03:08.958012, 449.1275, 4172
18:03:08.958032, 449.13, 4168
18:03:08.958048, 449.1325, 4185
18:03:08.958062, 449.135, 4174
18:03:08.991191, 449.1375, 4192
18:03:08.991279, 449.14, 4201
18:03:08.991304, 449.1425, 4056
18:03:08.991326, 449.145, 4236
18:03:08.991638, 449.1475, 4225
18:03:08.991664, 449.15, 4220
18:03:08.991680, 449.1525, 4224
18:03:08.991694, 449.155, 4224
18:03:08.991954, 449.1575, 4238
18:03:08.991973, 449.16, 4069
18:03:08.991988, 449.1625, 4245
18:03:08.992002, 449.165, 4233
18:03:08.997277, 449.1675, 4236
18:03:08.997374, 449.17, 4067
18:03:08.997430, 449.1725, 4260
18:03:08.997481, 449.175, 4236
18:03:09.023715, 449.1775, 4198
18:03:09.023799, 449.18, 4214
18:03:09.023834, 449.1825, 4198
18:03:09.023865, 449.185, 4224
18:03:09.024399, 449.1875, 4207
18:03:09.024431, 449.19, 4202
18:03:09.024455, 449.1925, 4208
18:03:09.024478, 449.195, 4150
18:03:09.024501, 449.1975, 4194
18:03:09.024931, 449.2, 4190
18:03:09.024963, 449.2025, 4175
18:03:09.024987, 449.205, 4188
18:03:09.025009, 449.2075, 4215
18:03:09.031655, 449.21, 4189
18:03:09.031683, 449.2125, 4136
18:03:09.031699, 449.215, 4178
18:03:09.031714, 449.2175, 4172
18:03:09.057007, 449.22, 4189
18:03:09.057104, 449.2225, 4180
18:03:09.057143, 449.225, 4188
18:03:09.057176, 449.2275, 4175
18:03:09.067672, 449.23, 4175
18:03:09.067704, 449.2325, 4208
18:03:09.067721, 449.235, 4194
18:03:09.067735, 449.2375, 4167
18:03:09.091842, 449.24, 4211
18:03:09.091959, 449.2425, 4185
18:03:09.092001, 449.245, 4176
18:03:09.092059, 449.2475, 4148
18:03:09.092608, 449.25, 4242
18:03:09.092644, 449.2525, 4213
18:03:09.092668, 449.255, 4198
18:03:09.092691, 449.2575, 4182
18:03:09.093092, 449.26, 4198
18:03:09.093121, 449.2625, 4189
18:03:09.093145, 449.265, 4107
18:03:09.093167, 449.2675, 4172
18:03:09.102478, 449.27, 4175
18:03:09.102591, 449.2725, 4186
18:03:09.102650, 449.275, 4154
18:03:09.102673, 449.2775, 4222
18:03:09.102694, 449.28, 4195
18:03:09.125097, 449.2825, 4165
18:03:09.125198, 449.285, 4183
18:03:09.125225, 449.2875, 4173
18:03:09.125246, 449.29, 4181
18:03:09.125578, 449.2925, 4160
18:03:09.125601, 449.295, 4169
18:03:09.125616, 449.2975, 4179
18:03:09.125631, 449.3, 4134
18:03:09.156218, 449.3025, 4195
18:03:09.156297, 449.305, 4202
18:03:09.156322, 449.3075, 4195
18:03:09.156343, 449.31, 4207
18:03:09.156734, 449.3125, 4205
18:03:09.156773, 449.315, 4177
18:03:09.156790, 449.3175, 4131
18:03:09.156806, 449.32, 4177
18:03:09.165150, 449.3225, 4190
18:03:09.165186, 449.325, 4200
18:03:09.165202, 449.3275, 4184
18:03:09.165217, 449.33, 4209
18:03:09.166399, 449.3325, 4201
18:03:09.166421, 449.335, 4162
18:03:09.166437, 449.3375, 4192
18:03:09.166452, 449.34, 4193
18:03:09.166467, 449.3425, 4185
18:03:09.194540, 449.345, 4177
18:03:09.194627, 449.3475, 4203
18:03:09.194678, 449.35, 4193
18:03:09.194710, 449.3525, 4044
18:03:09.198509, 449.355, 4208
18:03:09.198576, 449.3575, 4201
18:03:09.198620, 449.36, 4205
18:03:09.198661, 449.3625, 4193
18:03:09.199313, 449.365, 4202
18:03:09.199334, 449.3675, 4187
18:03:09.199349, 449.37, 4122
18:03:09.199364, 449.3725, 4214
18:03:09.200774, 449.375, 4190
18:03:09.200794, 449.3775, 4172
18:03:09.200809, 449.38, 4136
18:03:09.200824, 449.3825, 4186
18:03:09.256642, 449.385, 4192
18:03:09.256731, 449.3875, 4141
18:03:09.256801, 449.39, 4180
18:03:09.256827, 449.3925, 4188
18:03:09.257148, 449.395, 4165
18:03:09.257179, 449.3975, 4163
18:03:09.257195, 449.4, 4161
18:03:09.257210, 449.4025, 4141
18:03:09.257469, 449.405, 4156
18:03:09.257494, 449.4075, 4181
18:03:09.257508, 449.41, 4167
18:03:09.257523, 449.4125, 4164
18:03:09.257537, 449.415, 4023
18:03:09.257786, 449.4175, 4209
18:03:09.257805, 449.42, 4181
18:03:09.257819, 449.4225, 4008
18:03:09.258066, 449.425, 4144
18:03:09.258084, 449.4275, 4163
18:03:09.258099, 449.43, 4139
18:03:09.258112, 449.4325, 4167
18:03:09.259296, 449.435, 4157
18:03:09.259327, 449.4375, 4154
18:03:09.259348, 449.44, 3987
18:03:09.259370, 449.4425, 4164
18:03:09.293265, 449.445, 4157
18:03:09.293343, 449.4475, 4155
18:03:09.293382, 449.45, 4127
18:03:09.293414, 449.4525, 4165
18:03:09.293447, 449.455, 4180
18:03:09.327333, 449.4575, 4149
18:03:09.327399, 449.46, 4168
18:03:09.327422, 449.4625, 4191
18:03:09.327479, 449.465, 4183
18:03:09.327791, 449.4675, 4178
18:03:09.327817, 449.47, 4167
18:03:09.327832, 449.4725, 4167
18:03:09.327846, 449.475, 4127
18:03:09.328096, 449.4775, 4152
18:03:09.328114, 449.48, 4159
18:03:09.328129, 449.4825, 4149
18:03:09.328143, 449.485, 4138
18:03:09.328391, 449.4875, 4152
18:03:09.328410, 449.49, 4154
18:03:09.328424, 449.4925, 3989
18:03:09.328438, 449.495, 4173
18:03:09.328687, 449.4975, 4191
18:03:09.328705, 449.5, 4163
18:03:09.328719, 449.5025, 4158
18:03:09.328733, 449.505, 4173
18:03:09.339469, 449.5075, 4134
18:03:09.339609, 449.51, 3990
18:03:09.339648, 449.5125, 4174
18:03:09.339680, 449.515, 4195
18:03:09.339712, 449.5175, 4163
18:03:09.359923, 449.52, 4168
18:03:09.360066, 449.5225, 4175
18:03:09.360095, 449.525, 4168
18:03:09.360406, 449.5275, 4054
18:03:09.360431, 449.53, 4173
18:03:09.360447, 449.5325, 4174
18:03:09.360462, 449.535, 4146
18:03:09.360477, 449.5375, 4141
18:03:09.389811, 449.54, 4142
18:03:09.389906, 449.5425, 4143
18:03:09.389946, 449.545, 4089
18:03:09.389974, 449.5475, 4158
18:03:09.390415, 449.55, 4139
18:03:09.390452, 449.5525, 4138
18:03:09.390469, 449.555, 4142
18:03:09.390485, 449.5575, 4151
18:03:09.390755, 449.56, 4171
18:03:09.390780, 449.5625, 3996
18:03:09.390795, 449.565, 4174
18:03:09.390810, 449.5675, 4171
18:03:09.423714, 449.57, 4153
18:03:09.423790, 449.5725, 4157
18:03:09.423812, 449.575, 4161
18:03:09.423831, 449.5775, 4157
18:03:09.424209, 449.58, 4106
18:03:09.424245, 449.5825, 4152
18:03:09.424260, 449.585, 4177
18:03:09.424274, 449.5875, 4163
18:03:09.424523, 449.59, 4156
18:03:09.424553, 449.5925, 4148
18:03:09.424568, 449.595, 4146
18:03:09.424582, 449.5975, 3997
18:03:09.425512, 449.6, 4190
18:03:09.425544, 449.6025, 4180
18:03:09.425559, 449.605, 4158
18:03:09.425573, 449.6075, 4162
18:03:09.425588, 449.61, 4189
18:03:09.434444, 449.6125, 4187
18:03:09.434501, 449.615, 4120
18:03:09.434535, 449.6175, 4168
18:03:09.434565, 449.62, 4149
18:03:09.463658, 449.6225, 4153
18:03:09.463741, 449.625, 4154
18:03:09.463766, 449.6275, 4167
18:03:09.463786, 449.63, 4188
18:03:09.464254, 449.6325, 4174
18:03:09.464355, 449.635, 4197
18:03:09.464413, 449.6375, 4168
18:03:09.464428, 449.64, 4165
18:03:09.496128, 449.6425, 4181
18:03:09.496195, 449.645, 4165
18:03:09.496223, 449.6475, 4171
18:03:09.496245, 449.65, 4123
18:03:09.496645, 449.6525, 4173
18:03:09.496673, 449.655, 4155
18:03:09.496690, 449.6575, 4169
18:03:09.496706, 449.66, 4180
18:03:09.496996, 449.6625, 4189
18:03:09.497017, 449.665, 4170
18:03:09.497034, 449.6675, 4120
18:03:09.497050, 449.67, 4189
18:03:09.505118, 449.6725, 4184
18:03:09.505267, 449.675, 4168
18:03:09.505293, 449.6775, 4114
18:03:09.505356, 449.68, 4196
18:03:09.525122, 449.6825, 4194
18:03:09.525248, 449.685, 4145
18:03:09.525288, 449.6875, 4161
18:03:09.525321, 449.69, 4142
18:03:09.525974, 449.6925, 4141
18:03:09.526028, 449.695, 4129
18:03:09.526055, 449.6975, 4123
18:03:09.526080, 449.7, 4121
18:03:09.526106, 449.7025, 4076
18:03:09.530695, 449.705, 4136
18:03:09.530754, 449.7075, 4127
18:03:09.530787, 449.71, 4100
18:03:09.530818, 449.7125, 4099
18:03:09.563215, 449.715, 4138
18:03:09.563347, 449.7175, 4124
18:03:09.563392, 449.72, 4097
18:03:09.563428, 449.7225, 4136
18:03:09.564062, 449.725, 4140
18:03:09.564098, 449.7275, 4136
18:03:09.564124, 449.73, 4161
18:03:09.564150, 449.7325, 4163
18:03:09.565311, 449.735, 4182
18:03:09.565337, 449.7375, 4118
18:03:09.565360, 449.74, 4197
18:03:09.565380, 449.7425, 4156
18:03:09.593766, 449.745, 4154
18:03:09.593833, 449.7475, 4109
18:03:09.593856, 449.75, 4189
18:03:09.593885, 449.7525, 4179
18:03:09.594254, 449.755, 4139
18:03:09.594276, 449.7575, 4166
18:03:09.594292, 449.76, 4172
18:03:09.594307, 449.7625, 4177
18:03:09.603980, 449.765, 4159
18:03:09.604062, 449.7675, 4195
18:03:09.604107, 449.77, 4179
