17:59:00.013155 467.32 1376 2544 13936 1156 125 -41
17:59:00.025085 467.33 1596 2472 14280 657 245 -16
17:59:00.025230 467.34 1528 2392 14168 1131 321 2
17:59:00.077881 467.35 1456 2544 14416 1676 251 -64
17:59:00.087377 467.36 1460 2724 14444 1269 335 -43
17:59:00.087659 467.37 1308 2700 14140 1027 510 -52
17:59:00.087898 467.38 1292 2792 14276 1012 454 -23
17:59:00.089663 467.39 1444 2772 14284 825 391 3
17:59:00.090547 467.4 1364 2840 14272 817 435 -59
17:59:00.091596 467.41 1372 2740 14132 669 498 -34
17:59:00.093287 467.42 1364 2604 13880 582 434 -15
17:59:00.094598 467.43 1340 2716 13832 789 373 -38
17:59:00.095787 467.44 1388 2668 14012 1065 384 -39
17:59:00.097956 467.45 1452 2748 14232 1270 289 -83
17:59:00.154811 467.46 1420 2824 14268 1230 302 -30
17:59:00.157822 467.47 1476 2832 14152 1134 431 -62
17:59:00.158952 467.48 1348 2928 14244 1083 375 -56
17:59:00.160371 467.49 1396 3080 14012 1015 397 -82
17:59:00.161580 467.5 1368 2988 14180 898 324 -84
17:59:00.163729 467.51 1324 3044 13964 909 318 -62
17:59:00.187908 467.52 1312 2992 14048 926 322 -67
17:59:00.188088 467.53 1384 3020 14112 877 361 -99
17:59:00.188224 467.54 1328 3080 13908 823 325 -38
17:59:00.188356 467.55 1384 3120 13988 927 335 -74
17:59:00.210836 467.56 1352 3220 14076 1021 377 -66
17:59:00.220440 467.57 1300 3188 14136 1187 372 -95
17:59:00.220880 467.58 1384 3196 14132 1228 348 -105
17:59:00.272336 467.59 1408 3256 14196 1212 383 -110
17:59:00.285780 467.6 1292 3256 14068 1248 658 -107
17:59:00.286051 467.61 1280 3336 13780 643 400 -51
17:59:00.286344 467.62 1272 3232 13704 351 261 -24
17:59:00.286689 467.63 1312 3248 14036 921 287 -111
17:59:00.287053 467.64 1316 3356 14040 1181 232 -93
17:59:00.287350 467.65 1396 3324 14116 971 232 -85
17:59:00.294743 467.66 1312 3336 14040 717 259 -42
17:59:00.323114 467.67 1248 3368 14120 784 222 -48
17:59:00.324214 467.68 1288 3484 13968 793 165 -56
17:59:00.325395 467.69 1396 3492 14028 756 236 -40
17:59:00.344005 467.7 1464 3492 14092 658 328 -70
17:59:00.351808 467.71 1384 3516 14028 788 318 -100
17:59:00.354323 467.72 1260 3532 14060 855 327 -51
17:59:00.362054 467.73 1328 3584 13972 748 378 -24
17:59:00.379795 467.74 1284 3496 13940 617 378 -90
17:59:00.389993 467.75 1360 3524 13980 671 330 -64
17:59:00.392189 467.76 1268 3544 14044 725 355 -85
17:59:00.408308 467.77 1356 3604 13992 780 331 -63
17:59:00.426249 467.78 1284 3608 13860 587 320 -42
17:59:00.426437 467.79 1360 3596 13880 582 296 -48
17:59:00.429503 467.8 1356 3624 13976 717 321 -50
17:59:00.465029 467.81 1280 3616 13936 737 345 -77
17:59:00.466645 467.82 1168 3636 14052 697 349 -84
17:59:00.467216 467.83 1200 3708 13808 638 303 -62
17:59:00.488228 467.84 1284 3692 14024 513 333 -22
17:59:00.488474 467.85 1344 3664 13896 413 353 -48
17:59:00.496884 467.86 1276 3700 13940 491 282 -54
17:59:00.514392 467.87 1356 3700 13824 489 305 -52
17:59:00.524740 467.88 1320 3808 13828 455 321 -52
17:59:00.545150 467.89 1212 3856 13936 495 336 -66
17:59:00.555881 467.9 1300 3860 13916 505 335 -67
17:59:00.556021 467.91 1232 3784 13916 480 376 -57
17:59:00.556681 467.92 1388 3764 14120 513 360 -79
17:59:00.574657 467.93 1232 3900 13924 483 298 -53
17:59:00.596458 467.94 1244 3812 13964 431 299 -50
17:59:00.596876 467.95 1308 3836 13860 448 290 -44
17:59:00.598866 467.96 1268 3900 13904 366 289 -58
17:59:00.656952 467.97 1180 3832 13984 371 322 -55
17:59:00.730602 467.98 1300 3964 13916 354 298 -60
17:59:00.738280 467.99 1268 3884 13832 402 319 -71
17:59:00.738387 468.0 1284 4000 13844 344 355 -72
17:59:00.738457 468.01 1184 3920 14064 379 311 -48
17:59:00.738525 468.02 1248 3932 13888 319 362 -69
17:59:00.738696 468.03 1324 3904 13896 296 293 -52
17:59:00.739786 468.04 1276 3936 13924 331 311 -62
17:59:00.759535 468.05 1220 3932 13964 315 300 -62
17:59:00.774216 468.06 1108 3972 13908 341 281 -45
17:59:00.774613 468.07 1236 3916 13968 283 310 -68
17:59:00.792507 468.08 1120 3952 13740 227 307 -35
17:59:00.806577 468.09 1180 3988 13784 221 277 -27
17:59:00.806961 468.1 1292 3988 13804 208 276 -42
17:59:00.807346 468.11 1312 4080 13920 179 308 -33
17:59:00.807703 468.12 1352 4000 13952 218 307 -27
17:59:00.808055 468.13 1064 4076 13952 192 309 -45
17:59:00.817688 468.14 1204 4108 13936 201 321 -24
17:59:00.838835 468.15 1224 4032 13844 155 285 -39
17:59:00.839136 468.16 1244 4088 13860 198 316 -74
17:59:00.839422 468.17 1216 4160 13764 144 307 -49
17:59:00.839711 468.18 1248 4100 13948 98 325 -36
17:59:00.850134 468.19 1116 4040 13904 105 294 -14
17:59:00.873853 468.2 1208 4056 13800 70 292 -30
17:59:00.875452 468.21 1140 4056 13800 82 281 -23
17:59:00.900176 468.22 1264 4100 13880 69 279 -27
17:59:00.905395 468.23 1228 4132 13864 48 284 -17
17:59:00.905596 468.24 1160 4040 13852 87 285 -65
17:59:00.909067 468.25 1196 4080 13836 87 291 -24
17:59:00.934361 468.26 1204 4112 13840 98 315 -59
17:59:00.943067 468.27 1244 4240 13932 68 332 -40
17:59:00.979077 468.28 1128 4136 13856 -24 300 -50
17:59:00.980863 468.29 1140 4148 13780 -90 261 -37
17:59:00.982817 468.3 1168 4136 13740 -187 224 -2
17:59:00.983873 468.31 1224 4064 13808 -148 250 -29
17:59:01.009757 468.32 1220 4104 14024 132 399 -92
17:59:01.009982 468.33 1084 4192 14060 43 369 -98
17:59:01.017548 468.34 1212 4188 13916 -145 325 -58
17:59:01.040008 468.35 1068 4016 13912 -226 228 -12
17:59:01.040157 468.36 1164 4116 13856 -146 157 -22
17:59:01.065430 468.37 1216 4092 13856 -157 140 18
17:59:01.073624 468.38 1056 4088 13460 -845 229 66
17:59:01.080045 468.39 1236 3968 13696 -879 26 145
17:59:01.081216 468.4 1420 4136 14464 338 499 -89
17:59:01.082513 468.41 1076 4248 14004 24 167 -79
17:59:01.127339 468.42 1044 4188 13848 -476 81 27
17:59:01.142591 468.43 1168 4096 13684 -399 158 75
17:59:01.143105 468.44 1080 3960 13392 -889 1 164
17:59:01.143528 468.45 1116 3824 13600 -709 -91 130
17:59:01.143908 468.46 1324 3972 13900 -229 -92 81
17:59:01.151305 468.47 1240 4108 14096 -79 -164 55
17:59:01.174547 468.48 1296 4180 14056 -235 -147 50
17:59:01.174707 468.49 1200 4156 13888 -420 -19 87
17:59:01.202609 468.5 1228 4104 13888 -373 26 36
17:59:01.217480 468.51 1160 4124 13908 -246 84 29
17:59:01.218377 468.52 1048 4100 13916 -216 206 4
17:59:01.219814 468.53 1180 4112 13904 -268 234 -6
17:59:01.242473 468.54 1272 3984 13724 -357 250 24
17:59:01.242711 468.55 1112 4032 13720 -256 256 7
17:59:01.242943 468.56 1240 3972 13716 -111 183 0
17:59:01.247284 468.57 1288 4072 13920 -193 181 23
17:59:01.261730 468.58 1276 3980 14040 -314 128 18
17:59:01.278986 468.59 1220 4048 13996 -477 128 45
17:59:01.284968 468.6 1340 4024 13976 -635 176 23
17:59:01.308940 468.61 1252 3952 13828 -736 168 56
17:59:01.309322 468.62 1344 3900 14128 -815 208 21
17:59:01.335090 468.63 1212 3968 13976 -866 215 66
17:59:01.340579 468.64 1280 3984 13848 -968 174 92
17:59:01.340795 468.65 1312 3988 13928 -994 150 83
17:59:01.353857 468.66 1176 3976 13988 -998 142 97
17:59:01.374085 468.67 1268 3924 13864 -975 143 111
17:59:01.374273 468.68 1324 3960 14008 -967 192 68
17:59:01.382848 468.69 1232 3964 13932 -931 219 79
17:59:01.394324 468.7 1196 3904 14056 -1036 238 50
17:59:01.409880 468.71 1232 3880 13904 -1088 162 89
17:59:01.410025 468.72 1344 3820 14080 -1154 45 104
17:59:01.411413 468.73 1272 3848 14188 -857 354 84
17:59:01.431939 468.74 1140 3884 13888 -1320 207 157
17:59:01.451770 468.75 1240 3748 13832 -1849 70 133
17:59:01.454024 468.76 1376 3608 13880 -1403 195 54
17:59:01.478608 468.77 1188 3648 14184 -1101 111 31
17:59:01.478771 468.78 1240 3700 13988 -1407 96 70
17:59:01.497814 468.79 1280 3632 13856 -1608 82 125
17:59:01.508374 468.8 1252 3572 13968 -1483 18 157
17:59:01.508606 468.81 1288 3468 14044 -1308 -10 152
17:59:01.508860 468.82 1360 3448 14096 -1301 -30 156
17:59:01.533481 468.83 1360 3552 14044 -1325 70 103
17:59:01.542945 468.84 1296 3576 14080 -1304 70 87
17:59:01.548857 468.85 1180 3624 14040 -1363 176 94
17:59:01.550631 468.86 1272 3544 13984 -1454 170 74
17:59:01.569815 468.87 1300 3432 13920 -1584 161 101
17:59:01.578474 468.88 1316 3288 14060 -1594 125 107
17:59:01.584300 468.89 1176 3292 14140 -1587 111 86
17:59:01.612629 468.9 1144 3248 14116 -1615 83 101
17:59:01.613667 468.91 1216 3232 14076 -1655 54 141
17:59:01.614790 468.92 1360 3216 13968 -1749 5 154
17:59:01.631535 468.93 1140 3168 14056 -1705 14 145
17:59:01.646645 468.94 1260 3116 13980 -1509 -82 137
17:59:01.647071 468.95 1352 3044 14096 -1474 -10 149
17:59:01.673244 468.96 1240 3128 14112 -1486 23 144
17:59:01.676828 468.97 1396 3108 14020 -1693 42 137
17:59:01.677063 468.98 1352 3116 14040 -1807 43 147
17:59:01.681608 468.99 1304 3080 14200 -1768 7 110
17:59:01.689114 469.0 1300 3012 14032 -1684 -4 122
17:59:01.710281 469.01 1272 2936 14160 -1695 72 118
17:59:01.732226 469.02 1344 2932 14164 -1642 86 57
17:59:01.747644 469.03 1348 2884 14160 -1607 5 97
17:59:01.747897 469.04 1320 2832 14040 -1559 8 73
17:59:01.747976 469.05 1284 2768 14240 -1526 -13 93
17:59:01.749085 469.06 1428 2712 14252 -1518 -14 99
17:59:01.764276 469.07 1336 2640 14092 -1560 12 88
17:59:01.797150 469.08 1396 2724 14160 -1671 -2 70
17:59:01.811619 469.09 1436 2644 14156 -1727 -44 76
17:59:01.811957 469.1 1364 2588 14232 -1652 -28 88
17:59:01.812201 469.11 1412 2584 14052 -1549 -54 28
17:59:01.833559 469.12 1400 2540 14296 -1470 3 57
17:59:01.843079 469.13 1424 2620 14256 -1439 -6 13
17:59:01.849306 469.14 1368 2540 14176 -1332 -18 23
17:59:01.852355 469.15 1408 2472 14152 -1290 26 12
17:59:01.871877 469.16 1400 2460 14216 -1326 74 28
17:59:01.886458 469.17 1352 2444 14148 -1393 45 23
17:59:01.887413 469.18 1432 2448 14196 -1438 6 29
17:59:01.932283 469.19 1504 2256 14176 -1420 -56 24
17:59:01.954577 469.2 1452 2328 14172 -1374 -17 16
17:59:01.966954 469.21 1444 2292 14240 -1341 -1 -8
17:59:01.977350 469.22 1412 2328 14204 -1256 28 18
17:59:01.977639 469.23 1448 2256 14196 -1299 8 6
17:59:01.977887 469.24 1412 2184 14260 -1275 -6 13
17:59:01.990006 469.25 1404 2212 14264 -1295 9 4
17:59:02.010946 469.26 1448 2220 14188 -1344 33 -4
17:59:02.011090 469.27 1380 2160 14280 -1207 97 -16
17:59:02.011196 469.28 1408 2120 14224 -1183 86 -5
17:59:02.011298 469.29 1524 2112 14320 -1281 -14 28
17:59:02.020536 469.3 1444 2148 14272 -1281 -31 3
17:59:02.043333 469.31 1516 2080 14236 -1197 -55 22
17:59:02.099659 469.32 1472 2084 14268 -1256 52 10
17:59:02.112500 469.33 1452 1976 14276 -1250 75 -31
17:59:02.112821 469.34 1480 1988 14372 -1264 48 -2
17:59:02.112952 469.35 1592 2016 14404 -1322 80 -21
17:59:02.113113 469.36 1480 1820 14260 -1411 39 -46
17:59:02.113263 469.37 1416 1780 14168 -1567 -64 -18
17:59:02.113411 469.38 1548 1804 14040 -1576 -141 -14
17:59:02.113556 469.39 1560 1760 14200 -1325 -93 -32
17:59:02.113700 469.4 1556 1812 14444 -947 79 -46
17:59:02.145489 469.41 1520 1784 14460 -771 136 -54
17:59:02.146564 469.42 1396 1856 14396 -929 61 -44
17:59:02.147652 469.43 1508 1728 14208 -1085 -11 4
17:59:02.171574 469.44 1472 1708 13952 -1076 -154 35
17:59:02.181140 469.45 1692 1728 14380 -822 -99 14
17:59:02.181284 469.46 1584 1812 14660 -715 108 -10
17:59:02.187039 469.47 1452 1812 14024 -1339 265 -20
17:59:02.188041 469.48 1552 1580 13760 -2058 -192 56
17:59:02.208890 469.49 1900 1324 15012 -880 242 -58
17:59:02.224323 469.5 1476 1716 14192 -49 -111 -63
17:59:02.244494 469.51 1596 1676 13724 -1225 -528 77
17:59:02.244996 469.52 1704 1484 14476 -479 220 -52
17:59:02.245352 469.53 1420 1580 14092 -724 -80 35
17:59:02.261893 469.54 1576 1528 13752 -1339 -342 107
17:59:02.265581 469.55 1620 1412 14360 -604 123 33
17:59:02.284740 469.56 1604 1632 14792 56 358 -57
17:59:02.296189 469.57 1564 1716 14692 -173 247 -18
17:59:02.299002 469.58 1532 1664 14376 -460 182 12
17:59:02.300427 469.59 1484 1696 14196 -620 188 24
17:59:02.321644 469.6 1520 1576 14392 -796 86 52
17:59:02.332569 469.61 1632 1664 14156 -837 40 53
17:59:02.351300 469.62 1560 1408 13968 -740 64 60
17:59:02.363685 469.63 1608 1380 14140 -608 129 46
17:59:02.363866 469.64 1632 1348 14116 -303 163 35
17:59:02.388351 469.65 1664 1312 13928 -89 181 38
17:59:02.396400 469.66 1704 1308 14108 308 179 -13
17:59:02.408322 469.67 1588 1476 14416 518 178 4
17:59:02.409284 469.68 1720 1424 14376 559 207 23
17:59:02.411336 469.69 1648 1532 14308 478 281 4
17:59:02.432593 469.7 1752 1504 14236 440 357 12
17:59:02.441810 469.71 1516 1468 14208 460 385 -18
17:59:02.443576 469.72 1648 1532 14116 381 367 -28
17:59:02.465726 469.73 1560 1564 14180 359 327 0
17:59:02.465883 469.74 1464 1552 14196 404 349 1
17:59:02.484385 469.75 1504 1600 14264 431 302 11
17:59:02.505113 469.76 1744 1576 14324 497 330 1
17:59:02.506604 469.77 1588 1568 14416 605 318 -2
17:59:02.507778 469.78 1644 1644 14264 659 326 5
17:59:02.561007 469.79 1592 1768 14304 823 372 -18
17:59:02.589251 469.8 1592 1840 14236 789 302 -32
17:59:02.598171 469.81 1496 1736 14500 980 556 -36
17:59:02.598303 469.82 1408 1764 14064 737 375 26
17:59:02.598579 469.83 1528 1744 14184 323 261 28
17:59:02.605231 469.84 1756 1592 14356 826 442 -19
17:59:02.609809 469.85 1516 1860 14076 775 208 -9
17:59:02.632049 469.86 1692 1640 14292 692 286 -18
17:59:02.632173 469.87 1604 1828 14276 904 328 -38
17:59:02.642597 469.88 1520 1772 14356 882 242 -16
17:59:02.643470 469.89 1568 1908 14220 828 240 -52
17:59:02.644661 469.9 1616 1860 14304 713 232 -3
17:59:02.664816 469.91 1552 1888 14224 753 249 -52
17:59:02.664981 469.92 1544 1904 14216 905 327 -53
17:59:02.665090 469.93 1576 2080 14200 1013 439 -67
17:59:02.671405 469.94 1596 2052 14392 965 462 -74
17:59:02.697023 469.95 1544 1960 14200 795 499 -78
17:59:02.698296 469.96 1536 1924 14104 816 426 -34
17:59:02.722919 469.97 1376 2004 14268 874 373 -56
17:59:02.732160 469.98 1452 2020 14260 1006 399 -19
17:59:02.732294 469.99 1528 2140 14216 866 304 -28
17:59:02.732494 470.0 1512 2112 14200 864 379 -22
17:59:02.757753 470.01 1568 2052 14300 1024 396 -28
17:59:02.765547 470.02 1392 2136 14192 1047 317 -16
17:59:02.791379 470.03 1500 2240 14184 974 369 -37
17:59:02.799746 470.04 1512 2212 14192 876 370 -18
17:59:02.799939 470.05 1552 2296 14140 844 427 -30
17:59:02.800192 470.06 1464 2380 14056 904 438 -6
17:59:02.800611 470.07 1476 2260 14160 880 478 -47
17:59:02.823955 470.08 1560 2252 14208 973 502 -60
17:59:02.839065 470.09 1384 2348 14176 1094 433 -39
17:59:02.840638 470.1 1484 2288 14068 1257 410 -36
17:59:02.861001 470.11 1496 2384 14256 1471 396 -46
17:59:02.872124 470.12 1484 2488 14276 1496 516 -33
17:59:02.876456 470.13 1360 2524 14196 1442 495 -68
17:59:02.878194 470.14 1384 2516 14128 1321 464 -38
17:59:02.920816 470.15 1468 2548 14192 1260 451 -40
17:59:02.931895 470.16 1372 2576 14076 1223 465 -88
17:59:02.932058 470.17 1448 2636 14292 1193 484 -87
17:59:02.932175 470.18 1444 2640 14060 1149 510 -84
17:59:02.936294 470.19 1348 2688 14236 1155 453 -98
17:59:02.937414 470.2 1372 2660 14164 1140 437 -96
17:59:02.959358 470.21 1408 2696 14320 1190 456 -102
17:59:02.965510 470.22 1444 2764 14188 1190 452 -98
17:59:02.971670 470.23 1324 2760 14132 1067 390 -78
17:59:02.999710 470.24 1368 2728 14044 1079 402 -86
17:59:03.000697 470.25 1352 2900 14080 1073 381 -70
17:59:03.023224 470.26 1372 2884 14068 1003 386 -61
17:59:03.031215 470.27 1540 2820 14008 1095 360 -73
17:59:03.031388 470.28 1392 2864 14004 1116 401 -96
17:59:03.031459 470.29 1420 2852 14232 1081 395 -102
17:59:03.059181 470.3 1336 2944 14100 1164 487 -73
17:59:03.067963 470.31 1320 2936 14124 1152 453 -96
17:59:03.071504 470.32 1332 3004 14060 1176 449 -91
17:59:03.073116 470.33 1248 3104 14192 1118 500 -135
17:59:03.094091 470.34 1232 3036 14000 1137 460 -121
17:59:03.100002 470.35 1332 3128 14120 1139 419 -103
17:59:03.121770 470.36 1328 3220 14260 1169 422 -90
17:59:03.169806 470.37 1324 3224 13964 1123 393 -95
17:59:03.174418 470.38 1364 3180 14040 1000 372 -91
17:59:03.176990 470.39 1356 3220 13956 866 313 -46
17:59:03.200253 470.4 1284 3200 14028 887 322 -73
17:59:03.202656 470.41 1424 3264 14248 1029 458 -121
17:59:03.203779 470.42 1352 3352 14184 1277 506 -136
17:59:03.204743 470.43 1188 3404 14052 1018 455 -137
17:59:03.206206 470.44 1152 3396 14044 816 419 -91
17:59:03.226931 470.45 1224 3288 14072 797 312 -73
17:59:03.235352 470.46 1300 3348 14180 873 258 -49
17:59:03.235459 470.47 1252 3436 13928 342 376 99
17:59:03.235531 470.48 1236 3408 13480 -317 67 62
17:59:03.289511 470.49 1472 3288 14604 1012 421 -121
17:59:03.302176 470.5 1308 3640 14384 1526 465 -147
17:59:03.302320 470.51 1272 3632 13864 265 30 -16
17:59:03.302462 470.52 1376 3484 13992 497 409 -49
17:59:03.302614 470.53 1172 3472 13628 61 150 37
17:59:03.311532 470.54 1216 3424 13572 -135 29 69
17:59:03.314120 470.55 1308 3308 13684 419 86 43
17:59:03.394115 470.56 1344 3508 14176 962 45 -20
17:59:03.401275 470.57 1284 3600 14292 1076 -67 -29
17:59:03.401404 470.58 1196 3672 14268 903 23 -22
17:59:03.401489 470.59 1136 3612 14172 793 148 -33
17:59:03.401571 470.6 1120 3696 14156 802 205 -24
17:59:03.401652 470.61 1268 3680 13996 795 252 -42
17:59:03.401734 470.62 1252 3648 13912 666 369 -50
17:59:03.401812 470.63 1156 3692 13956 535 361 -58
17:59:03.406613 470.64 1284 3720 13804 673 266 -56
17:59:03.431864 470.65 1256 3784 13732 798 244 -39
17:59:03.439162 470.66 1332 3712 14016 838 166 -17
17:59:03.507347 470.67 1432 3740 14068 926 178 -53
17:59:03.510847 470.68 1428 3840 13996 770 249 -78
17:59:03.513457 470.69 1248 3748 14072 620 296 -66
17:59:03.514118 470.7 1224 3748 14040 566 349 -62
17:59:03.516400 470.71 1252 3868 13936 468 334 -59
17:59:03.534584 470.72 1232 3792 13988 456 340 -50
17:59:03.534777 470.73 1280 3840 13824 401 304 -62
17:59:03.534967 470.74 1224 3804 13936 340 270 -21
17:59:03.535127 470.75 1172 3836 13928 331 274 -36
17:59:03.535289 470.76 1208 3780 13820 326 286 -39
17:59:03.560852 470.77 1308 3892 13956 374 306 -57
17:59:03.569007 470.78 1328 3972 13756 412 329 -66
17:59:03.569140 470.79 1284 4024 13960 441 330 -45
17:59:03.592415 470.8 1240 3908 13896 489 390 -81
17:59:03.606140 470.81 1140 3968 13924 544 392 -130
17:59:03.606258 470.82 1248 4048 14052 509 287 -100
17:59:03.609925 470.83 1160 3920 14196 636 619 -111
17:59:03.657730 470.84 1100 4072 13760 186 395 -28
17:59:03.668648 470.85 1276 3932 13696 -182 265 -4
17:59:03.669038 470.86 1260 3868 13896 345 421 -88
17:59:03.669405 470.87 1212 3972 13936 631 240 -80
17:59:03.669764 470.88 1232 4060 13880 431 209 -69
17:59:03.670198 470.89 1220 4116 13688 169 212 -27
17:59:03.670527 470.9 1300 4032 13856 209 205 -20
17:59:03.684422 470.91 1144 4124 14084 226 129 4
17:59:03.712607 470.92 1288 4004 13916 283 177 -24
17:59:03.713882 470.93 1216 4112 14020 304 217 -33
17:59:03.716025 470.94 1200 4108 13932 296 253 -42
17:59:03.737150 470.95 1232 4140 13936 312 273 -58
17:59:03.737292 470.96 1172 4164 13772 197 310 -37
17:59:03.744315 470.97 1220 4032 13896 163 311 -30
17:59:03.767420 470.98 1132 4032 13852 115 277 -44
17:59:03.791662 470.99 1220 4056 13824 214 268 -33
17:59:03.803820 471.0 1272 4152 13860 196 267 -54
17:59:03.804009 471.01 1192 4120 13868 60 200 -5
17:59:03.804219 471.02 1260 4128 13756 93 276 -39
17:59:03.804508 471.03 1188 4176 13832 89 294 -29
17:59:03.829094 471.04 1192 4088 13816 106 327 -46
17:59:03.837699 471.05 1164 4104 13896 55 309 -64
17:59:03.844306 471.06 1160 4208 13728 6 328 -44
17:59:03.847828 471.07 1188 4088 13876 -19 321 -25
17:59:03.867415 471.08 1208 4208 13896 -51 282 -34
17:59:03.875085 471.09 1252 4120 14024 -9 297 -2
17:59:03.939028 471.1 1128 3988 13992 -28 288 -33
17:59:03.940556 471.11 1100 4188 13800 -42 284 -34
17:59:03.940692 471.12 1224 4136 13756 -76 298 -21
17:59:03.941842 471.13 1168 4224 13916 -61 294 -38
17:59:03.945386 471.14 1196 4188 13924 -98 300 -20
17:59:03.948265 471.15 1220 4228 13852 -135 274 2
17:59:03.949608 471.16 1088 4156 13924 -162 294 -17
17:59:03.964309 471.17 1096 4204 13756 -191 272 -50
17:59:03.974368 471.18 1064 4128 13636 -214 256 -23
17:59:04.014315 471.19 1140 4192 13776 -224 261 -8
17:59:04.015856 471.2 1192 4088 13844 -244 273 -23
17:59:04.016305 471.21 1180 4224 14044 -284 277 -22
17:59:04.033006 471.22 1196 4280 13880 -359 258 -3
17:59:04.040363 471.23 1184 4244 13892 -385 258 -3
17:59:04.040508 471.24 1252 4160 13900 -527 222 5
17:59:04.046361 471.25 1192 4104 13932 -620 216 3
17:59:04.047471 471.26 1220 4156 13860 -686 192 9
17:59:04.065322 471.27 1152 4132 13804 -812 210 13
17:59:04.073818 471.28 1088 4212 14012 -980 222 24
17:59:04.073995 471.29 1092 4144 13940 -1090 209 42
17:59:04.083405 471.3 1116 4184 13924 -1181 177 59
17:59:04.106395 471.31 1080 4108 13928 -1313 91 79
17:59:04.107365 471.32 1092 3932 14032 -1388 69 70
17:59:04.128509 471.33 1100 4084 14088 -1409 101 100
17:59:04.139256 471.34 1036 4024 14016 -1545 73 101
17:59:04.139406 471.35 1220 3932 13764 -1597 64 126
17:59:04.141692 471.36 1208 3764 13836 -1664 23 160
17:59:04.199345 471.37 1276 3848 14000 -1648 31 146
17:59:04.206829 471.38 1148 3816 13904 -1660 41 159
17:59:04.207012 471.39 1172 3748 13968 -1634 -46 162
17:59:04.228236 471.4 1172 3816 14056 -1661 -17 200
17:59:04.243650 471.41 1280 3816 14080 -1767 11 205
17:59:04.281552 471.42 1240 3788 14128 -1883 68 157
17:59:04.283216 471.43 1208 3724 14212 -1951 34 194
17:59:04.284545 471.44 1168 3672 13996 -2132 -15 202
17:59:04.285892 471.45 1244 3464 14012 -2311 -141 218
17:59:04.286474 471.46 1236 3360 13880 -2230 -184 250
17:59:04.288403 471.47 1260 3340 13916 -1992 -74 206
17:59:04.307975 471.48 1368 3332 14128 -1557 15 173
17:59:04.308126 471.49 1280 3364 14284 -1356 134 78
17:59:04.308287 471.5 1360 3432 14132 -1482 150 119
17:59:04.308481 471.51 1300 3404 14064 -1645 121 101
17:59:04.330707 471.52 1304 3208 14072 -1645 -28 135
17:59:04.349892 471.53 1176 3208 14076 -1626 -97 173
17:59:04.352403 471.54 1284 3236 13960 -1862 107 237
17:59:04.372138 471.55 1280 3224 13528 -2519 -1 220
17:59:04.372302 471.56 1552 2984 14268 -2164 -118 142
17:59:04.372457 471.57 1464 3084 14728 -788 223 4
17:59:04.383226 471.58 1172 3224 13976 -1374 -386 178
17:59:04.403343 471.59 1268 3028 13824 -2058 -385 214
17:59:04.411044 471.6 1184 2944 13900 -1601 -3 171
17:59:04.411141 471.61 1164 2948 13752 -2070 -489 280
17:59:04.426954 471.62 1380 2764 13752 -1953 -318 234
17:59:04.441623 471.63 1484 2720 14448 -904 -59 67
17:59:04.443905 471.64 1404 3016 14504 -746 -78 58
17:59:04.445672 471.65 1328 3004 14440 -1211 -55 101
17:59:04.465746 471.66 1300 2892 14184 -1407 10 88
17:59:04.485491 471.67 1328 3012 14276 -1572 52 157
17:59:04.486139 471.68 1384 2832 14196 -1767 -9 113
17:59:04.487547 471.69 1312 2764 14032 -1831 13 142
17:59:04.505250 471.7 1396 2652 14048 -1835 55 143
17:59:04.517045 471.71 1300 2560 14032 -1851 -5 101
17:59:04.517157 471.72 1324 2456 13968 -1757 -74 145
17:59:04.542000 471.73 1392 2496 13920 -1469 -50 85
17:59:04.544279 471.74 1492 2480 14216 -1061 -79 48
17:59:04.567511 471.75 1420 2468 14488 -921 -34 29
17:59:04.568513 471.76 1452 2516 14328 -1047 23 71
17:59:04.569981 471.77 1472 2512 14348 -1251 54 27
17:59:04.579932 471.78 1476 2504 14196 -1257 100 36
17:59:04.588367 471.79 1396 2396 14160 -1377 45 33
17:59:04.601037 471.8 1380 2412 14204 -1455 12 35
17:59:04.620318 471.81 1456 2396 14040 -1420 11 -8
17:59:04.620809 471.82 1436 2364 14152 -1479 -1 21
17:59:04.639610 471.83 1468 2312 14180 -1541 48 6
17:59:04.642045 471.84 1576 2300 14140 -1503 -19 0
17:59:04.662548 471.85 1496 2244 14120 -1523 -27 5
17:59:04.669107 471.86 1504 2212 14060 -1368 23 6
17:59:04.680834 471.87 1432 2236 14292 -1106 82 4
17:59:04.689778 471.88 1432 2228 14468 -1015 132 27
17:59:04.706992 471.89 1456 2196 14304 -1018 47 32
17:59:04.717461 471.9 1324 2196 14296 -846 297 -14
17:59:04.721600 471.91 1336 2076 14184 -1228 62 14
17:59:04.730873 471.92 1616 2128 14092 -1542 -8 30
17:59:04.740145 471.93 1596 1996 14048 -1411 -172 18
17:59:04.741817 471.94 1492 2024 14316 -1012 -80 -37
17:59:04.785512 471.95 1528 2100 14168 -960 -106 -23
17:59:04.792429 471.96 1408 2088 14160 -1127 -50 -22
17:59:04.792964 471.97 1444 2088 14320 -1085 -30 -16
17:59:04.796204 471.98 1636 2040 14172 -1269 -56 -13
17:59:04.798193 471.99 1616 1928 14332 -1273 -43 -50
17:59:04.817764 472.0 1444 1988 14388 -1213 28 -54
17:59:04.818495 472.01 1484 1972 14324 -1325 95 -69
17:59:04.871603 472.02 1480 1800 14304 -1348 80 -60
17:59:04.888152 472.03 1540 1924 14324 -1423 38 -101
17:59:04.899028 472.04 1524 1772 14244 -1574 99 -97
17:59:04.899193 472.05 1496 1680 14288 -1631 42 -82
17:59:04.899404 472.06 1596 1720 14296 -1494 19 -88
17:59:04.899656 472.07 1624 1664 14364 -1581 -40 -62
17:59:04.901582 472.08 1608 1684 14112 -1699 -129 -37
17:59:04.903281 472.09 1660 1636 14044 -1611 -182 -54
17:59:04.922123 472.1 1600 1576 14164 -1337 -190 -14
17:59:04.934508 472.11 1584 1556 14280 -1109 -123 -30
17:59:04.939553 472.12 1596 1552 14232 -1012 -102 0
17:59:04.962382 472.13 1584 1520 14300 -998 20 5
17:59:04.962991 472.14 1608 1528 14232 -979 72 27
17:59:04.980526 472.15 1592 1448 14184 -962 63 1
17:59:04.989071 472.16 1644 1516 14256 -952 90 -8
17:59:04.989287 472.17 1648 1488 14312 -910 118 -44
17:59:05.000618 472.18 1660 1488 14148 -775 58 -38
17:59:05.009894 472.19 1656 1484 14168 -850 71 -20
17:59:05.011519 472.2 1444 1436 14308 -780 46 -4
17:59:05.019672 472.21 1616 1432 14268 -700 58 6
17:59:05.034080 472.22 1620 1396 14300 -685 69 -9
17:59:05.065142 472.23 1692 1456 14156 -646 76 -16
17:59:05.078569 472.24 1672 1360 14252 -593 98 -31
17:59:05.080366 472.25 1712 1412 14332 -522 122 -13
17:59:05.081594 472.26 1616 1356 14176 -469 148 -4
17:59:05.083200 472.27 1692 1360 14180 -330 203 -23
17:59:05.099578 472.28 1672 1380 14228 -243 149 -20
17:59:05.122485 472.29 1644 1384 14056 -150 183 -23
17:59:05.124210 472.3 1768 1364 14236 -96 182 12
17:59:05.148051 472.31 1672 1372 14300 -1 158 14
17:59:05.148210 472.32 1628 1360 14164 86 151 -9
17:59:05.156736 472.33 1724 1288 14340 114 151 27
17:59:05.185057 472.34 1696 1368 14148 242 203 7
17:59:05.185288 472.35 1716 1292 14268 349 244 13
17:59:05.185709 472.36 1692 1352 14268 410 285 -9
17:59:05.201730 472.37 1608 1392 14276 462 287 10
17:59:05.212905 472.38 1680 1504 14268 561 385 17
17:59:05.213255 472.39 1680 1496 14264 567 375 -47
17:59:05.214367 472.4 1584 1420 14380 567 412 -43
17:59:05.235676 472.41 1636 1484 14292 394 401 -30
17:59:05.246952 472.42 1620 1492 14100 225 229 -3
17:59:05.254101 472.43 1688 1396 14080 263 182 4
17:59:05.256002 472.44 1652 1432 14420 548 284 -3
17:59:05.276926 472.45 1716 1532 14696 865 482 -50
17:59:05.285508 472.46 1568 1620 14332 802 476 -31
17:59:05.290062 472.47 1604 1580 14256 649 407 -12
17:59:05.313968 472.48 1476 1540 14148 505 254 0
17:59:05.315529 472.49 1572 1484 14272 564 147 34
17:59:05.342286 472.5 1596 1524 14464 813 323 19
17:59:05.353494 472.51 1680 1684 14112 502 543 42
17:59:05.353894 472.52 1516 1800 13620 -389 227 77
17:59:05.354507 472.53 1788 1472 14332 163 298 45
17:59:05.374065 472.54 1804 1696 14704 1774 476 -96
17:59:05.381544 472.55 1584 1872 13932 1045 -49 -6
17:59:05.401286 472.56 1628 1640 14148 416 7 35
17:59:05.407367 472.57 1616 1604 14404 1303 553 -41
17:59:05.407466 472.58 1380 1756 13996 403 -81 109
17:59:05.431244 472.59 1644 1548 14000 129 107 97
17:59:05.442646 472.6 1696 1544 14312 1102 430 -16
17:59:05.443015 472.61 1532 2004 14704 1445 492 -60
17:59:05.460351 472.62 1620 2020 14596 1096 493 -64
17:59:05.471373 472.63 1524 1956 14328 865 442 -10
17:59:05.471505 472.64 1488 2056 14208 595 503 24
17:59:05.504006 472.65 1508 1968 14140 427 333 51
17:59:05.511077 472.66 1652 1928 14172 317 262 25
17:59:05.511407 472.67 1608 2012 14228 299 302 12
17:59:05.511682 472.68 1552 1936 14056 280 328 12
17:59:05.511949 472.69 1580 1920 14012 371 306 11
17:59:05.514304 472.7 1568 1952 13952 654 314 -6
17:59:05.543556 472.71 1572 1808 14108 1037 305 -20
17:59:05.553857 472.72 1596 1884 14296 1297 323 -15
17:59:05.555626 472.73 1608 2052 14424 1261 398 -44
17:59:05.569358 472.74 1572 2012 14348 1052 432 -22
17:59:05.578027 472.75 1552 1932 14244 914 418 -23
17:59:05.593213 472.76 1596 2168 14172 881 422 -28
17:59:05.602612 472.77 1576 2256 14148 763 368 -38
17:59:05.622613 472.78 1684 2192 14100 734 373 -40
17:59:05.634012 472.79 1608 2168 14204 804 373 -34
17:59:05.634224 472.8 1496 2264 14196 728 368 -42
17:59:05.634497 472.81 1560 2272 14128 783 379 -61
17:59:05.658573 472.82 1512 2228 14332 825 390 -19
17:59:05.694680 472.83 1416 2248 14372 789 369 -16
17:59:05.695751 472.84 1588 2356 14260 1022 409 -27
17:59:05.696833 472.85 1560 2440 14332 1078 382 -66
17:59:05.699360 472.86 1540 2408 14488 1102 492 -59
17:59:05.722963 472.87 1404 2544 14152 1017 570 -26
17:59:05.731062 472.88 1528 2412 14012 493 416 -20
17:59:05.731239 472.89 1592 2348 14124 617 488 -45
17:59:05.731657 472.9 1436 2464 14200 663 226 -43
17:59:05.749937 472.91 1600 2416 14204 934 358 -49
17:59:05.770233 472.92 1508 2484 14188 862 308 -48
17:59:05.771944 472.93 1560 2540 14296 671 285 -36
17:59:05.774531 472.94 1420 2484 14232 718 286 -15
17:59:05.788369 472.95 1468 2604 14116 577 266 -49
17:59:05.799195 472.96 1480 2568 14204 657 301 -75
17:59:05.809831 472.97 1408 2580 14184 815 305 -83
17:59:05.836834 472.98 1488 2504 14172 915 364 -87
17:59:05.856904 472.99 1488 2536 14164 986 391 -91
17:59:05.875228 473.0 1544 2716 14112 856 447 -88
17:59:05.876208 473.01 1488 2732 14124 729 449 -52
17:59:05.878032 473.02 1408 2636 14116 679 397 -97
17:59:05.896380 473.03 1536 2688 14216 715 368 -91
17:59:05.896546 473.04 1400 2648 14104 570 378 -92
17:59:05.896699 473.05 1440 2660 14048 597 374 -61
17:59:05.906571 473.06 1380 2728 14188 742 474 -88
17:59:05.908141 473.07 1316 2680 14176 869 402 -73
17:59:05.929171 473.08 1332 2708 14024 928 413 -82
17:59:05.930693 473.09 1368 2852 14024 829 382 -59
17:59:05.951899 473.1 1380 2828 14032 778 399 -51
17:59:05.964776 473.11 1416 2880 14272 765 342 -22
17:59:05.964970 473.12 1388 2924 14076 799 344 -24
17:59:05.992539 473.13 1460 2928 14032 740 436 -65
17:59:06.001804 473.14 1352 2952 14160 737 368 -92
17:59:06.002200 473.15 1368 2984 14044 730 370 -88
17:59:06.002428 473.16 1352 3048 14124 757 380 -87
17:59:06.009414 473.17 1220 2924 14280 884 425 -80
17:59:06.024441 473.18 1336 3080 14072 832 441 -98
17:59:06.055940 473.19 1332 2992 14032 757 401 -87
17:59:06.085246 473.2 1372 2996 14044 763 385 -53
17:59:06.104372 473.21 1292 3000 14192 763 354 -106
17:59:06.104494 473.22 1356 2988 14068 803 374 -82
17:59:06.104583 473.23 1256 3144 14180 909 327 -95
17:59:06.104698 473.24 1416 3136 13964 930 363 -113
17:59:06.109259 473.25 1396 3164 14148 884 398 -82
17:59:06.110807 473.26 1420 3168 14012 869 405 -141
17:59:06.152392 473.27 1332 3200 14028 881 393 -126
17:59:06.170494 473.28 1316 3244 14108 843 402 -84
17:59:06.170929 473.29 1396 3220 14036 737 392 -132
17:59:06.171280 473.3 1208 3240 14116 708 367 -95
17:59:06.171616 473.31 1344 3176 14056 642 368 -84
17:59:06.171942 473.32 1268 3220 14156 613 310 -69
17:59:06.191486 473.33 1232 3224 14124 752 329 -80
17:59:06.199970 473.34 1372 3328 14060 686 363 -57
17:59:06.233804 473.35 1236 3340 14112 650 332 -74
17:59:06.234889 473.36 1272 3320 13988 604 373 -77
17:59:06.236052 473.37 1240 3364 13920 655 319 -70
17:59:06.244183 473.38 1260 3360 14148 686 355 -81
17:59:06.268470 473.39 1348 3396 13952 634 340 -98
17:59:06.268575 473.4 1388 3468 13996 666 389 -74
17:59:06.268652 473.41 1288 3428 14080 780 425 -73
17:59:06.289886 473.42 1356 3492 14000 732 388 -105
17:59:06.297938 473.43 1268 3568 14044 642 377 -60
17:59:06.303856 473.44 1300 3476 13948 453 336 -47
17:59:06.305479 473.45 1312 3560 13836 388 251 -28
17:59:06.326540 473.46 1232 3480 14004 404 237 -27
17:59:06.332417 473.47 1388 3492 14052 634 354 -58
17:59:06.368101 473.48 1332 3572 14140 854 426 -125
17:59:06.369095 473.49 1292 3624 14052 717 410 -96
17:59:06.370263 473.5 1180 3576 14000 472 394 -107
17:59:06.389935 473.51 1224 3656 14116 475 290 -49
17:59:06.402330 473.52 1252 3692 14148 495 217 -73
17:59:06.402515 473.53 1152 3520 13852 136 370 30
17:59:06.427967 473.54 1200 3588 13424 -560 136 94
17:59:06.437106 473.55 1468 3492 14264 286 357 -36
17:59:06.437236 473.56 1368 3712 14600 1274 557 -192
17:59:06.454987 473.57 1188 3892 13804 355 24 -19
17:59:06.469060 473.58 1280 3716 13716 55 207 -22
17:59:06.469381 473.59 1172 3672 13684 4 171 60
17:59:06.489877 473.6 1064 3592 13512 -298 -46 104
17:59:06.502083 473.61 1320 3568 13756 199 76 58
17:59:06.509969 473.62 1364 3708 13980 718 20 26
17:59:06.511314 473.63 1320 3772 14260 688 -54 4
17:59:06.512880 473.64 1232 3752 14180 548 54 -35
17:59:06.558942 473.65 1244 3832 14104 423 150 6
17:59:06.566238 473.66 1236 3808 14108 434 144 -3
17:59:06.566506 473.67 1160 3952 13920 480 285 -5
17:59:06.566648 473.68 1160 3836 14000 495 382 -68
17:59:06.566780 473.69 1152 3916 13840 440 390 -67
17:59:06.566983 473.7 1224 3900 13944 362 385 -51
17:59:06.589252 473.71 1240 3816 13796 410 344 -71
17:59:06.603506 473.72 1276 3772 13792 589 226 -60
17:59:06.603917 473.73 1272 3848 14036 710 182 -57
17:59:06.605597 473.74 1184 3780 14036 678 220 -38
17:59:06.648847 473.75 1304 3848 14096 611 263 -55
17:59:06.667208 473.76 1264 3988 13924 469 318 -44
17:59:06.667480 473.77 1220 3956 13936 356 356 -64
17:59:06.667686 473.78 1200 3932 13984 270 328 -47
17:59:06.667881 473.79 1268 3856 14028 293 301 -42
17:59:06.668073 473.8 1188 4016 14048 217 291 -63
17:59:06.676714 473.81 1208 3968 13960 248 273 -37
17:59:06.705625 473.82 1140 3952 13808 193 308 -47
17:59:06.711376 473.83 1248 3936 13824 200 296 -39
17:59:06.711523 473.84 1168 3976 13872 263 303 -32
17:59:06.728861 473.85 1220 4004 13936 284 319 -59
17:59:06.739852 473.86 1292 4052 13924 329 340 -43
17:59:06.772451 473.87 1164 4020 13884 377 301 -39
17:59:06.779959 473.88 1168 4132 13828 304 214 -47
17:59:06.780281 473.89 1200 4092 14088 432 520 -121
17:59:06.799653 473.9 1088 4068 13840 246 398 -48
17:59:06.803268 473.91 1216 4032 13640 -280 259 9
17:59:06.827317 473.92 1312 3928 13844 173 396 -62
17:59:06.836799 473.93 1084 4024 14060 450 296 -93
17:59:06.837023 473.94 1164 4064 13816 197 239 -35
17:59:06.837324 473.95 1152 4104 13756 -14 242 -52
17:59:06.862421 473.96 1164 4108 13812 -65 187 0
17:59:06.875950 473.97 1168 4100 13904 45 117 -2
17:59:06.876060 473.98 1264 4076 13948 26 180 -31
17:59:06.880567 473.99 1260 4116 13892 39 191 -5
17:59:06.910624 474.0 1280 4204 13952 74 225 -19
17:59:06.910767 474.01 1276 4200 13768 44 260 -47
17:59:06.910892 474.02 1216 4120 13864 -74 276 -30
17:59:06.928974 474.03 1308 3980 13848 -96 260 -7
17:59:06.941469 474.04 1268 4072 13900 -86 245 -14
17:59:06.941693 474.05 1196 4020 13932 -53 237 -9
17:59:06.943029 474.06 1168 4012 13848 -140 183 -25
17:59:06.958738 474.07 1172 3956 13892 -256 210 7
17:59:06.995839 474.08 1248 4104 13860 -269 218 -4
17:59:07.004131 474.09 1204 4144 13888 -349 207 -6
17:59:07.004331 474.1 1176 4092 13944 -361 220 -1
17:59:07.030977 474.11 1212 4072 13932 -475 199 5
17:59:07.039347 474.12 1152 4160 13944 -510 201 5
17:59:07.045003 474.13 1192 4072 13856 -582 204 33
17:59:07.046192 474.14 1216 4128 13912 -660 221 27
17:59:07.047384 474.15 1200 4084 13896 -666 207 29
17:59:07.049885 474.16 1180 4024 13932 -700 149 46
17:59:07.071644 474.17 1180 4048 13872 -738 142 54
17:59:07.071835 474.18 1288 3928 13920 -813 148 61
17:59:07.074158 474.19 1104 4004 13936 -774 135 68
17:59:07.102487 474.2 1204 4036 14112 -801 145 56
17:59:07.106447 474.21 1192 3964 13904 -924 134 76
17:59:07.106537 474.22 1172 3928 14064 -1110 135 85
17:59:07.111512 474.23 1164 3936 13944 -1224 123 103
17:59:07.136975 474.24 1072 3900 13952 -1244 111 129
17:59:07.140377 474.25 1152 3852 13940 -1355 85 110
17:59:07.162866 474.26 1224 3876 14016 -1357 70 99
17:59:07.175721 474.27 1104 3844 13964 -1356 44 118
17:59:07.175848 474.28 1256 3776 13764 -1460 28 108
17:59:07.175934 474.29 1212 3740 13988 -1424 1 112
17:59:07.179346 474.3 1204 3756 14024 -1376 3 97
17:59:07.194292 474.31 1320 3660 13900 -1330 40 115
17:59:07.224056 474.32 1224 3704 14028 -1405 46 112
17:59:07.243975 474.33 1092 3656 14004 -1484 47 117
17:59:07.244080 474.34 1256 3664 13936 -1435 38 135
17:59:07.244142 474.35 1268 3632 14012 -1308 37 117
17:59:07.257590 474.36 1388 3404 14068 -1381 67 93
17:59:07.271633 474.37 1332 3592 13988 -1375 74 96
17:59:07.282435 474.38 1312 3560 13956 -1408 105 117
17:59:07.304040 474.39 1188 3536 14080 -1473 83 130
17:59:07.304152 474.4 1260 3508 14068 -1514 78 130
17:59:07.304221 474.41 1284 3476 14004 -1435 26 99
17:59:07.316306 474.42 1272 3444 14080 -1379 36 126
17:59:07.337831 474.43 1356 3364 14032 -1448 43 146
17:59:07.390676 474.44 1264 3248 13940 -1472 -32 124
17:59:07.407610 474.45 1336 3284 14092 -1426 55 111
17:59:07.407816 474.46 1248 3264 14188 -1471 135 98
17:59:07.408005 474.47 1276 3324 14124 -1526 -2 107
17:59:07.408182 474.48 1312 3288 14036 -1623 33 141
17:59:07.408359 474.49 1344 3252 14020 -1790 -29 168
17:59:07.408534 474.5 1380 3196 13840 -1901 -112 170
17:59:07.444810 474.51 1328 3024 14036 -1701 -116 124
17:59:07.448403 474.52 1428 2956 14124 -1425 15 135
17:59:07.450515 474.53 1372 3064 14284 -1161 127 53
17:59:07.451504 474.54 1428 3152 14264 -1210 98 84
17:59:07.453864 474.55 1244 3112 14240 -1516 75 97
17:59:07.474997 474.56 1280 3004 13984 -1673 -47 101
17:59:07.475109 474.57 1304 2900 14116 -1649 -199 153
17:59:07.476874 474.58 1376 2816 14348 -1602 -109 180
17:59:07.497293 474.59 1240 2964 13840 -2165 47 233
17:59:07.510822 474.6 1432 2832 13656 -2622 -393 204
17:59:07.540090 474.61 1676 2544 14728 -1273 114 46
17:59:07.541133 474.62 1252 2748 14112 -1040 -358 105
17:59:07.542333 474.63 1436 2708 13888 -2069 -569 213
17:59:07.544758 474.64 1468 2548 14052 -1452 98 55
17:59:07.570608 474.65 1288 2632 13600 -1949 -500 208
17:59:07.577804 474.66 1596 2428 13836 -1784 -305 145
17:59:07.634602 474.67 1560 2588 14468 -844 22 70
17:59:07.641640 474.68 1448 2632 14668 -682 -41 15
17:59:07.641765 474.69 1404 2724 14420 -1204 -8 40
17:59:07.641894 474.7 1432 2632 14292 -1514 58 68
17:59:07.642115 474.71 1436 2528 14312 -1609 -25 115
17:59:07.642441 474.72 1500 2636 14196 -1830 -40 135
17:59:07.642769 474.73 1512 2408 14128 -1892 -9 120
17:59:07.654023 474.74 1464 2316 13956 -1898 45 72
17:59:07.681457 474.75 1476 2192 13988 -1827 -43 65
17:59:07.681905 474.76 1504 2100 13984 -1590 -73 42
17:59:07.682263 474.77 1560 2144 14112 -1166 -99 20
17:59:07.701484 474.78 1504 2092 14308 -842 -24 40
17:59:07.710507 474.79 1516 2132 14440 -828 -45 11
17:59:07.713832 474.8 1568 2168 14328 -840 14 -1
17:59:07.735733 474.81 1552 2220 14352 -966 27 11
17:59:07.735950 474.82 1492 2200 14208 -1197 97 -1
17:59:07.736696 474.83 1412 2056 14080 -1432 -12 12
17:59:07.760567 474.84 1448 2112 14240 -1469 0 -12
17:59:07.772549 474.85 1504 2084 14272 -1553 -172 -4
17:59:07.773911 474.86 1464 2140 14304 -1690 -171 -6
17:59:07.775576 474.87 1628 1904 14060 -1642 -75 -22
17:59:07.790209 474.88 1648 1916 14208 -1524 -48 -72
17:59:07.799750 474.89 1552 1932 14248 -1453 -55 -62
17:59:07.817732 474.9 1596 1960 14204 -1115 9 -33
17:59:07.845194 474.91 1604 2052 14428 -923 124 -62
17:59:07.857923 474.92 1560 1920 14212 -1079 80 -65
17:59:07.858036 474.93 1584 1948 14628 -1008 225 -54
17:59:07.858104 474.94 1528 1908 14248 -1094 151 -13
17:59:07.872499 474.95 1524 1860 14008 -1669 -5 -14
17:59:07.884271 474.96 1560 1784 14088 -1634 -102 -4
17:59:07.897953 474.97 1552 1740 14224 -1281 -264 -30
17:59:07.907440 474.98 1724 1792 14308 -1185 -222 -16
17:59:07.907652 474.99 1736 1704 14356 -1147 -117 -48
17:59:07.908042 475.0 1568 1656 14260 -1198 -68 -27
17:59:07.931299 475.01 1600 1640 14328 -1146 -53 -6
17:59:07.934422 475.02 1652 1676 14320 -1157 -83 -11
17:59:07.946086 475.03 1660 1636 14400 -1217 -32 -37
17:59:07.961880 475.04 1696 1660 14264 -1161 35 -79
17:59:07.962228 475.05 1624 1612 14204 -1093 40 -73
17:59:07.967134 475.06 1688 1512 14248 -1009 83 -75
17:59:07.991980 475.07 1584 1452 14116 -1127 86 -34
17:59:07.993915 475.08 1628 1400 14276 -1095 57 -12
17:59:08.065347 475.09 1624 1652 14296 -1089 27 -39
17:59:08.066555 475.1 1892 1380 14308 -910 15 -24
17:59:08.068770 475.11 1644 1428 14188 -864 11 -31
17:59:08.070240 475.12 1736 1516 14320 -846 -10 -27
17:59:08.071863 475.13 1660 1316 14232 -761 -19 -28
17:59:08.093072 475.14 1584 1300 14084 -571 30 -38
17:59:08.093345 475.15 1684 1364 14184 -439 104 -13
17:59:08.093542 475.16 1684 1336 14240 -458 134 -27
17:59:08.093653 475.17 1596 1348 14232 -364 141 21
17:59:08.112946 475.18 1756 1380 14268 -299 111 29
17:59:08.125610 475.19 1656 1264 14156 -95 171 13
17:59:08.125854 475.2 1676 1316 14180 77 217 20
17:59:08.134769 475.21 1752 1388 14196 261 239 16
17:59:08.136018 475.22 1736 1480 14160 387 274 40
17:59:08.148914 475.23 1716 1464 14312 468 366 25
17:59:08.171854 475.24 1632 1400 14096 645 371 -4
17:59:08.191739 475.25 1716 1364 14168 737 391 2
17:59:08.191886 475.26 1676 1428 14164 763 402 -12
17:59:08.191992 475.27 1588 1396 14196 908 473 -21
17:59:08.218583 475.28 1712 1512 14220 921 439 -37
17:59:08.227099 475.29 1640 1464 14272 925 378 -38
17:59:08.231313 475.3 1564 1584 14320 1028 455 -37
17:59:08.233274 475.31 1712 1584 14376 983 464 -25
17:59:08.253686 475.32 1648 1552 14284 963 433 -23
17:59:08.261019 475.33 1660 1600 14364 1012 413 -37
17:59:08.269207 475.34 1668 1704 14320 995 442 -45
17:59:08.270943 475.35 1680 1804 14168 952 399 -37
17:59:08.291857 475.36 1664 1664 14084 971 376 -31
17:59:08.315715 475.37 1604 1692 14184 970 408 -44
17:59:08.326485 475.38 1652 1752 14148 1065 328 -21
17:59:08.326822 475.39 1748 1656 14220 1192 406 -38
17:59:08.329498 475.4 1592 1728 14384 1333 477 -60
17:59:08.331959 475.41 1616 1756 14260 1224 465 -62
17:59:08.352197 475.42 1580 1784 14392 1170 408 -46
17:59:08.360268 475.43 1612 1856 14128 1152 372 -6
17:59:08.364052 475.44 1656 1944 14312 1136 399 -17
17:59:08.392626 475.45 1616 1936 14204 1145 401 -23
17:59:08.393580 475.46 1692 1924 14184 1097 351 -9
17:59:08.394699 475.47 1688 2048 14240 1156 451 -52
17:59:08.402080 475.48 1620 2084 14336 1253 606 -95
17:59:08.426403 475.49 1584 2164 14424 1398 689 -78
17:59:08.431555 475.5 1508 2160 14520 1417 651 -94
17:59:08.452966 475.51 1560 2140 14316 1211 528 -76
17:59:08.464829 475.52 1436 2224 14160 919 362 -47
17:59:08.465008 475.53 1504 2136 14052 903 248 -1
17:59:08.465146 475.54 1568 2240 14292 1078 319 -25
17:59:08.486567 475.55 1452 2332 14304 851 555 37
17:59:08.495089 475.56 1436 2308 13572 -123 262 69
17:59:08.529683 475.57 1716 2064 14356 574 495 -30
17:59:08.530901 475.58 1692 2256 14716 1866 691 -203
17:59:08.532125 475.59 1364 2420 14120 1378 183 -27
17:59:08.534917 475.6 1580 2364 14224 627 259 -33
17:59:08.555533 475.61 1472 2384 14136 1150 620 -69
17:59:08.566081 475.62 1392 2396 13692 236 -152 148
17:59:08.567708 475.63 1552 2136 13752 443 272 63
17:59:08.588311 475.64 1608 2264 14316 1564 391 -72
17:59:08.600533 475.65 1512 2528 14568 1647 361 -77
17:59:08.600665 475.66 1488 2680 14508 1173 423 -34
17:59:08.618615 475.67 1360 2684 14264 875 429 -38
17:59:08.630540 475.68 1444 2660 14312 719 449 1
17:59:08.630817 475.69 1424 2628 14164 485 441 -16
17:59:08.652934 475.7 1492 2720 13964 417 468 -9
17:59:08.671712 475.71 1540 2632 14044 454 495 -19
17:59:08.672490 475.72 1432 2524 14012 512 470 -12
17:59:08.673382 475.73 1508 2496 13936 619 391 -25
17:59:08.687216 475.74 1516 2540 14008 929 342 -25
17:59:08.694695 475.75 1496 2620 14196 1248 358 -26
17:59:08.694857 475.76 1560 2664 14364 1275 415 -93
17:59:08.701612 475.77 1504 2724 14352 1155 387 -62
17:59:08.748146 475.78 1480 2736 14208 1075 471 -86
17:59:08.764788 475.79 1436 2884 14228 823 472 -118
17:59:08.764893 475.8 1500 2832 14212 686 417 -75
17:59:08.764960 475.81 1508 2860 14076 558 348 -68
17:59:08.765023 475.82 1388 2844 14100 635 253 -31
17:59:08.765549 475.83 1380 2848 14084 743 299 -44
17:59:08.777409 475.84 1328 2948 14068 605 303 -56
17:59:08.795743 475.85 1340 2828 14156 592 424 -51
17:59:08.801409 475.86 1428 2864 14152 829 344 -52
17:59:08.803913 475.87 1400 2972 14052 909 340 -34
17:59:08.824057 475.88 1380 2992 14312 1135 392 -66
17:59:08.828865 475.89 1384 3100 14076 1233 330 -113
17:59:08.836757 475.9 1388 3120 14300 1341 491 -121
17:59:08.865428 475.91 1292 3104 14172 1210 635 -74
17:59:08.866421 475.92 1372 3140 14016 701 408 -66
17:59:08.867602 475.93 1284 2972 13840 553 431 -63
17:59:08.889878 475.94 1352 3140 13944 810 338 -134
17:59:08.899210 475.95 1372 3168 14056 1081 319 -138
17:59:08.899384 475.96 1336 3072 14080 947 293 -82
17:59:08.921564 475.97 1248 3120 14008 726 305 -68
17:59:08.935176 475.98 1360 3216 13992 791 295 -87
17:59:08.962835 475.99 1420 3284 14052 800 161 -54
17:59:08.973565 476.0 1404 3272 14076 791 265 -88
17:59:08.974002 476.01 1420 3148 14092 867 276 -82
17:59:08.974267 476.02 1464 3312 14056 958 318 -106
17:59:08.974756 476.03 1352 3344 14120 992 350 -134
17:59:08.979263 476.04 1352 3408 14156 891 386 -122
17:59:09.007781 476.05 1384 3268 13956 664 384 -75
17:59:09.007985 476.06 1340 3392 14136 681 358 -78
17:59:09.027144 476.07 1380 3416 14036 800 340 -90
17:59:09.040303 476.08 1280 3396 14092 691 361 -75
17:59:09.041206 476.09 1228 3392 13912 594 277 -39
17:59:09.042313 476.1 1512 3416 13980 655 315 -89
17:59:09.060492 476.11 1380 3432 13952 737 384 -32
17:59:09.079021 476.12 1300 3384 13908 716 331 -85
17:59:09.107204 476.13 1308 3496 14040 693 274 -81
17:59:09.113214 476.14 1392 3552 13860 624 283 -77
17:59:09.113324 476.15 1304 3668 14148 599 303 -51
17:59:09.113393 476.16 1332 3620 14064 573 320 -76
17:59:09.114750 476.17 1292 3600 14012 531 331 -58
17:59:09.121388 476.18 1272 3624 14052 499 360 -26
17:59:09.139324 476.19 1244 3544 13916 423 313 -21
17:59:09.149987 476.2 1296 3576 14036 443 298 -33
17:59:09.160455 476.21 1364 3640 14004 572 292 -50
17:59:09.182335 476.22 1356 3564 13964 584 295 -45
17:59:09.182468 476.23 1244 3712 13884 524 296 -39
17:59:09.203281 476.24 1264 3660 14040 514 321 -44
17:59:09.215639 476.25 1288 3652 13828 472 325 -71
17:59:09.215778 476.26 1248 3728 13832 454 297 -42
17:59:09.221323 476.27 1268 3624 13984 498 276 -59
17:59:09.222467 476.28 1264 3676 13920 537 331 -60
17:59:09.239792 476.29 1352 3676 13960 577 315 -67
17:59:09.274136 476.3 1260 3724 13836 509 347 -93
17:59:09.281944 476.31 1280 3672 13884 520 352 -91
17:59:09.282091 476.32 1284 3792 13896 506 282 -49
17:59:09.282206 476.33 1356 3740 13880 494 303 -44
17:59:09.324995 476.34 1276 3780 13860 456 322 -57
17:59:09.325855 476.35 1224 3796 14060 446 287 -35
17:59:09.327092 476.36 1264 3832 13852 479 292 -41
17:59:09.329622 476.37 1328 3812 13996 439 311 -60
17:59:09.348908 476.38 1260 3800 14040 486 283 -48
17:59:09.349276 476.39 1208 3832 13900 492 280 -64
17:59:09.356174 476.4 1200 3988 13864 427 338 -61
17:59:09.358157 476.41 1272 3896 14008 372 334 -54
17:59:09.379295 476.42 1236 3872 13800 380 306 -68
17:59:09.382306 476.43 1292 3956 13904 385 343 -50
17:59:09.393919 476.44 1340 3928 13796 347 310 -43
17:59:09.395474 476.45 1196 3952 14012 332 334 -67
17:59:09.417389 476.46 1288 4004 13996 354 319 -38
17:59:09.419699 476.47 1188 4104 14032 328 343 -53
17:59:09.441067 476.48 1212 3900 13836 290 315 -39
17:59:09.449327 476.49 1280 3924 13996 290 345 -80
17:59:09.451569 476.5 1388 4020 13816 287 262 -48
17:59:09.480252 476.51 1276 4036 13860 280 322 -51
17:59:09.485114 476.52 1332 4028 13800 297 330 -35
17:59:09.485249 476.53 1248 4048 14040 328 336 -50
17:59:09.544711 476.54 1260 3956 13916 284 361 -54
17:59:09.549341 476.55 1284 4052 13868 183 317 -59
17:59:09.549565 476.56 1160 4020 13784 74 280 -26
17:59:09.549759 476.57 1256 4012 13840 0 237 -44
17:59:09.550671 476.58 1240 4008 13864 28 268 -33
17:59:09.557706 476.59 1296 4092 14048 354 401 -66
17:59:09.577541 476.6 1172 4192 14116 358 442 -104
17:59:09.583543 476.61 1112 4068 13900 80 370 -95
17:59:09.583658 476.62 1132 4164 13788 -22 334 -44
17:59:09.609998 476.63 1236 4064 13844 -29 209 -25
17:59:09.617999 476.64 1284 4024 14072 18 174 -36
17:59:09.618191 476.65 1228 4140 13716 -459 317 68
17:59:09.618315 476.66 1252 3916 13456 -865 10 111
17:59:09.662971 476.67 1516 4004 14260 105 440 -55
17:59:09.685074 476.68 1240 4300 14272 582 401 -141
17:59:09.685220 476.69 1204 4116 13824 -263 -8 -8
17:59:09.685314 476.7 1240 4076 13728 -325 187 -12
17:59:09.685401 476.71 1096 4108 13528 -523 123 90
17:59:09.685483 476.72 1272 3828 13388 -711 -47 119
17:59:09.691514 476.73 1236 3880 13588 -197 82 97
17:59:09.719401 476.74 1344 4040 14084 82 10 39
17:59:09.720598 476.75 1228 3984 14044 46 -87 22
17:59:09.730331 476.76 1216 4216 14112 -198 -53 73
17:59:09.757244 476.77 1212 4124 14000 -290 13 77
17:59:09.758360 476.78 1132 4036 13832 -167 115 35
17:59:09.760003 476.79 1320 4168 13880 -110 205 17
17:59:09.777533 476.8 1264 4148 13792 -28 307 -16
17:59:09.785949 476.81 1320 4080 13788 -35 331 -21
17:59:09.791271 476.82 1208 4028 13840 -115 286 -37
17:59:09.793090 476.83 1180 4032 13876 26 247 -16
17:59:09.815043 476.84 1208 4028 13864 126 167 19
17:59:09.822806 476.85 1344 4020 13984 108 209 -24
17:59:09.888416 476.86 1280 4020 14036 6 184 -27
17:59:09.889491 476.87 1296 4004 14080 -146 227 -33
17:59:09.892684 476.88 1420 4084 13860 -315 196 -13
17:59:09.895599 476.89 1248 4128 13860 -469 223 3
17:59:09.896395 476.9 1196 4076 13940 -547 214 18
17:59:09.898296 476.91 1160 4096 13932 -622 179 14
17:59:09.922401 476.92 1284 3988 13952 -746 195 41
17:59:09.922566 476.93 1232 3972 13728 -763 148 72
17:59:09.922697 476.94 1244 4036 13908 -757 143 60
17:59:09.922825 476.95 1192 3948 13828 -712 157 24
17:59:09.945226 476.96 1204 3976 13896 -682 142 69
17:59:09.977605 476.97 1160 4004 13888 -610 195 42
17:59:09.988061 476.98 1276 4024 14048 -602 241 36
17:59:09.988245 476.99 1292 4092 13980 -645 245 16
17:59:09.988397 477.0 1200 4032 13888 -816 122 43
17:59:09.992000 477.01 1244 3896 14232 -665 481 2
17:59:10.012713 477.02 1120 3948 13800 -1155 160 95
17:59:10.019506 477.03 1224 3828 13628 -1617 37 147
17:59:10.019684 477.04 1336 3768 13932 -1116 192 70
17:59:10.032349 477.05 1260 3868 14040 -834 17 77
17:59:10.052702 477.06 1316 3752 13816 -1176 34 83
17:59:10.078223 477.07 1236 3828 14008 -1402 29 117
17:59:10.087082 477.08 1260 3792 14060 -1431 -8 146
17:59:10.097103 477.09 1276 3740 14036 -1418 -33 156
17:59:10.120340 477.1 1316 3716 14020 -1512 -72 153
17:59:10.120644 477.11 1416 3676 14032 -1492 -24 135
17:59:10.121018 477.12 1400 3704 14088 -1401 22 129
17:59:10.141238 477.13 1376 3720 14028 -1435 40 137
17:59:10.153902 477.14 1356 3636 14192 -1534 -6 164
17:59:10.154028 477.15 1256 3532 13968 -1633 6 172
17:59:10.154130 477.16 1400 3496 14056 -1661 28 168
17:59:10.180356 477.17 1352 3392 14136 -1636 2 156
17:59:10.186777 477.18 1276 3356 14000 -1562 -1 130
17:59:10.187026 477.19 1272 3332 13968 -1581 -34 163
17:59:10.187388 477.2 1436 3368 13952 -1613 37 116
17:59:10.188065 477.21 1372 3276 14172 -1542 54 146
17:59:10.212708 477.22 1340 3340 14164 -1560 31 139
17:59:10.221000 477.23 1252 3272 14064 -1593 36 132
17:59:10.225369 477.24 1344 3288 14044 -1626 -63 163
17:59:10.245606 477.25 1348 3244 13908 -1673 -40 160
17:59:10.254563 477.26 1424 3168 14164 -1716 1 177
17:59:10.254713 477.27 1284 3236 14104 -1698 17 159
17:59:10.274341 477.28 1376 3128 14076 -1689 -15 153
17:59:10.292069 477.29 1284 3152 13992 -1682 -11 145
17:59:10.292175 477.3 1436 3064 14192 -1581 -25 164
17:59:10.313555 477.31 1260 3060 14096 -1557 -12 143
17:59:10.324369 477.32 1400 3004 14048 -1470 -69 118
17:59:10.324559 477.33 1336 2968 14212 -1441 -35 141
17:59:10.331805 477.34 1432 2988 14132 -1482 15 112
17:59:10.333437 477.35 1380 2908 14192 -1492 -7 99
17:59:10.357324 477.36 1412 2828 14232 -1580 -21 108
17:59:10.357649 477.37 1460 2828 14160 -1579 -63 98
17:59:10.380815 477.38 1444 2796 14188 -1471 -24 89
17:59:10.392147 477.39 1488 2704 14212 -1447 -14 44
17:59:10.395459 477.4 1452 2668 14104 -1412 22 67
17:59:10.396663 477.41 1436 2732 14240 -1407 17 81
17:59:10.398110 477.42 1480 2760 14164 -1424 26 52
17:59:10.411775 477.43 1460 2692 14084 -1453 26 39
17:59:10.428835 477.44 1524 2744 14144 -1403 -23 39
17:59:10.430261 477.45 1428 2636 14024 -1401 -58 42
17:59:10.443872 477.46 1416 2520 14084 -1363 11 27
17:59:10.457702 477.47 1460 2544 14152 -1346 -41 51
17:59:10.457990 477.48 1412 2528 14104 -1327 -43 52
17:59:10.464703 477.49 1420 2568 14212 -1300 43 41
17:59:10.510646 477.5 1428 2384 14232 -1312 15 24
17:59:10.520884 477.51 1476 2456 14260 -1394 -4 27
17:59:10.521164 477.52 1468 2320 14048 -1340 -1 51
17:59:10.521434 477.53 1584 2388 14160 -1301 -10 19
17:59:10.554395 477.54 1380 2384 14212 -1329 22 56
17:59:10.557453 477.55 1504 2408 14128 -1211 -7 44
17:59:10.557558 477.56 1576 2360 14092 -1162 21 28
17:59:10.559657 477.57 1484 2288 14276 -1168 60 2
17:59:10.562148 477.58 1524 2412 14148 -1189 76 -20
17:59:10.586478 477.59 1512 2308 14320 -1199 90 -18
17:59:10.590947 477.6 1452 2144 14224 -1157 140 10
17:59:10.613154 477.61 1616 2280 14172 -1285 77 -40
17:59:10.626695 477.62 1512 2152 14220 -1296 -19 12
17:59:10.626953 477.63 1540 2236 14232 -1383 -43 14
17:59:10.627081 477.64 1540 2176 14160 -1470 -48 21
17:59:10.646323 477.65 1588 2120 13988 -1481 -109 44
17:59:10.656480 477.66 1704 1980 14064 -1474 -81 1
17:59:10.678781 477.67 1608 1980 14396 -1059 83 -37
17:59:10.689378 477.68 1572 2044 14348 -884 113 -30
17:59:10.689543 477.69 1584 2028 14360 -1140 30 -12
17:59:10.689661 477.7 1548 1928 14112 -1204 -29 -13
17:59:10.715575 477.71 1552 1848 14044 -1204 -157 62
17:59:10.724297 477.72 1652 1836 14316 -846 -113 5
17:59:10.728856 477.73 1744 1852 14572 -746 143 1
17:59:10.730763 477.74 1548 2080 14020 -1404 280 30
17:59:10.749193 477.75 1576 1788 13664 -2026 -164 44
17:59:10.757981 477.76 1852 1668 14856 -655 282 -72
17:59:10.767145 477.77 1524 1900 14124 -158 -196 -19
17:59:10.793864 477.78 1588 1788 13820 -1361 -487 96
17:59:10.794203 477.79 1688 1632 14516 -279 302 -81
17:59:10.794478 477.8 1440 1788 13900 -966 -259 86
17:59:10.801726 477.81 1724 1632 13872 -1246 -221 125
17:59:10.826295 477.82 1732 1668 14416 -294 193 29
17:59:10.827441 477.83 1720 1824 14716 156 295 -27
17:59:10.852409 477.84 1600 1896 14688 115 297 -26
17:59:10.858620 477.85 1552 1928 14192 -192 167 20
17:59:10.858785 477.86 1620 1912 14124 -359 137 64
17:59:10.861596 477.87 1668 1892 14304 -386 143 81
17:59:10.886453 477.88 1700 1764 14108 -367 138 75
17:59:10.893499 477.89 1652 1728 14008 -283 215 69
17:59:10.901648 477.9 1608 1660 14016 -181 153 104
17:59:10.923169 477.91 1612 1720 13804 39 199 94
17:59:10.923908 477.92 1696 1636 13960 342 213 53
17:59:10.925500 477.93 1668 1588 14096 710 235 -12
17:59:10.946361 477.94 1664 1680 14236 896 204 -8
17:59:10.959450 477.95 1532 1820 14284 1029 297 -35
17:59:10.959719 477.96 1712 1792 14328 1017 369 -50
17:59:10.987557 477.97 1624 1824 14180 938 436 -41
17:59:10.991975 477.98 1672 1884 14192 854 417 -77
17:59:10.992144 477.99 1540 1916 14228 798 425 -25
17:59:10.996530 478.0 1512 1904 14168 647 366 -38
17:59:11.016181 478.01 1608 1884 14296 669 343 -38
17:59:11.049160 478.02 1596 1960 14272 715 304 17
17:59:11.056973 478.03 1664 1896 14360 780 303 -16
17:59:11.057125 478.04 1596 2064 14156 839 310 -19
17:59:11.059308 478.05 1640 2168 14120 1011 323 -2
17:59:11.062428 478.06 1560 2116 14284 1132 329 -14
17:59:11.064713 478.07 1628 2240 14168 1091 304 -38
17:59:11.079435 478.08 1636 2064 14412 1257 503 -30
17:59:11.112842 478.09 1568 2152 14232 1317 601 -60
17:59:11.126648 478.1 1512 2276 14044 752 347 2
17:59:11.126971 478.11 1560 2116 14144 829 428 -34
17:59:11.127190 478.12 1504 2116 14144 1131 416 -64
17:59:11.183538 478.13 1540 2224 14228 893 226 -51
17:59:11.190881 478.14 1700 2160 14364 1059 407 -96
17:59:11.190967 478.15 1668 2284 14188 1075 356 -63
17:59:11.191031 478.16 1536 2328 14180 902 332 -61
17:59:11.191093 478.17 1572 2340 14072 795 214 -16
17:59:11.191154 478.18 1716 2388 14160 806 277 -46
17:59:11.201442 478.19 1648 2420 14204 876 321 -64
17:59:11.203374 478.2 1560 2340 14216 1053 343 -64
17:59:11.225316 478.21 1488 2444 14268 1183 375 -67
17:59:11.252216 478.22 1388 2440 14240 1230 443 -75
17:59:11.263810 478.23 1504 2480 14148 1096 391 -43
17:59:11.263947 478.24 1516 2500 14188 1014 382 -56
17:59:11.289602 478.25 1416 2592 14372 1056 373 -61
17:59:11.293382 478.26 1516 2552 14036 1012 442 -34
17:59:11.293487 478.27 1484 2528 14116 777 358 -45
17:59:11.294927 478.28 1592 2608 14172 731 420 -68
17:59:11.297379 478.29 1524 2604 14176 810 426 -74
17:59:11.325019 478.3 1476 2636 14224 833 390 -70
17:59:11.332228 478.31 1436 2724 14168 750 349 -56
17:59:11.332360 478.32 1432 2656 14068 683 349 -43
17:59:11.334548 478.33 1444 2716 14120 661 338 -31
17:59:11.357856 478.34 1552 2724 14168 690 363 -28
17:59:11.386546 478.35 1596 2792 14128 754 383 -26
17:59:11.397598 478.36 1528 2856 14024 715 362 -27
17:59:11.397750 478.37 1504 2832 14072 762 331 -57
17:59:11.397909 478.38 1372 2848 14160 878 305 -29
17:59:11.398998 478.39 1548 2856 14096 940 379 -52
17:59:11.423158 478.4 1464 2932 14224 960 417 -99
17:59:11.433861 478.41 1512 2908 14260 973 424 -82
17:59:11.462603 478.42 1604 2948 14196 903 423 -67
17:59:11.463834 478.43 1388 2980 13996 840 383 -56
17:59:11.465400 478.44 1536 2976 13936 795 345 -81
17:59:11.467840 478.45 1408 2912 14092 913 330 -81
17:59:11.483249 478.46 1448 2996 14148 899 354 -71
17:59:11.491998 478.47 1472 3020 14144 824 378 -124
17:59:11.501481 478.48 1380 3084 13976 888 359 -77
17:59:11.502802 478.49 1416 3072 13984 843 363 -82
17:59:11.526672 478.5 1376 3116 14060 853 311 -90
17:59:11.543202 478.51 1416 3152 13920 951 354 -115
17:59:11.559955 478.52 1444 3208 14184 922 388 -94
17:59:11.560100 478.53 1356 3140 13980 853 388 -92
17:59:11.560256 478.54 1424 3088 14004 814 368 -114
17:59:11.577408 478.55 1372 3208 14128 829 344 -119
17:59:11.579402 478.56 1420 3228 14092 802 357 -95
17:59:11.602836 478.57 1384 3268 13980 717 305 -121
17:59:11.610063 478.58 1452 3256 14044 755 336 -110
17:59:11.610240 478.59 1464 3240 13968 728 328 -103
17:59:11.620151 478.6 1416 3344 14032 687 362 -75
17:59:11.636722 478.61 1336 3256 14028 741 389 -85
17:59:11.645824 478.62 1324 3264 14084 783 340 -98
17:59:11.666575 478.63 1352 3384 14076 834 338 -81
17:59:11.678323 478.64 1468 3408 14124 736 365 -101
17:59:11.678520 478.65 1364 3444 14152 680 370 -80
17:59:11.678718 478.66 1368 3412 13988 591 295 -96
17:59:11.698578 478.67 1464 3308 13808 573 244 -61
17:59:11.709709 478.68 1352 3336 14024 748 359 -66
17:59:11.719154 478.69 1256 3456 14148 999 469 -120
17:59:11.720743 478.7 1420 3556 14116 912 466 -119
17:59:11.734223 478.71 1228 3584 13924 660 401 -122
17:59:11.743622 478.72 1332 3528 13928 525 299 -54
17:59:11.756834 478.73 1432 3460 13964 503 181 -37
17:59:11.778201 478.74 1352 3552 14036 572 176 -27
17:59:11.804508 478.75 1320 3704 13996 70 330 69
17:59:11.822205 478.76 1452 3388 13856 -240 110 16
17:59:11.852283 478.77 1584 3492 14448 911 554 -156
17:59:11.852384 478.78 1352 3820 14260 1157 334 -109
17:59:11.852449 478.79 1356 3600 13904 175 22 -10
17:59:11.852511 478.8 1464 3640 14052 471 447 -67
17:59:11.852858 478.81 1092 3732 13520 -215 35 52
17:59:11.853809 478.82 1332 3404 13376 -339 -26 92
17:59:11.856801 478.83 1404 3448 13756 309 161 4
17:59:11.880313 478.84 1416 3640 14164 725 20 -32
17:59:11.880432 478.85 1228 3668 14252 864 9 -46
17:59:11.900654 478.86 1336 3828 14092 643 -11 -26
17:59:11.913858 478.87 1420 3928 14176 400 108 -18
17:59:11.914035 478.88 1352 3764 14136 418 133 -17
17:59:11.915527 478.89 1272 3820 13908 443 271 -43
17:59:11.936348 478.9 1460 3844 13904 523 307 -56
17:59:11.944749 478.91 1380 3844 13844 461 338 -72
17:59:11.951158 478.92 1264 3628 13884 471 262 -62
17:59:11.953893 478.93 1380 3768 13848 618 229 -75
17:59:11.974580 478.94 1444 3736 13872 754 223 -35
17:59:11.983249 478.95 1512 3792 14048 736 201 -76
17:59:12.015131 478.96 1468 3760 13972 700 260 -46
17:59:12.016261 478.97 1404 3732 14036 576 323 -73
17:59:12.017384 478.98 1336 3880 14000 471 298 -51
17:59:12.037994 478.99 1356 3896 14024 384 318 -64
17:59:12.048415 479.0 1352 3928 14112 328 302 -57
17:59:12.048603 479.01 1324 3948 14088 279 290 -59
17:59:12.056462 479.02 1316 3852 14068 226 299 -54
17:59:12.058095 479.03 1344 3912 13836 299 251 -32
17:59:12.081264 479.04 1364 3908 13884 311 247 -74
17:59:12.104284 479.05 1364 3980 13836 294 261 -60
17:59:12.112210 479.06 1376 3988 13888 313 315 -63
17:59:12.112374 479.07 1336 3948 13836 343 341 -64
17:59:12.116908 479.08 1408 4000 14044 451 323 -56
17:59:12.119406 479.09 1300 3988 13956 556 330 -48
17:59:12.132549 479.1 1404 4048 13932 479 254 -80
17:59:12.157445 479.11 1404 4096 14080 624 665 -99
17:59:12.182169 479.12 1176 4080 13824 213 368 -32
17:59:12.182537 479.13 1328 4016 13520 -185 254 12
17:59:12.182815 479.14 1408 3912 13832 406 433 -104
17:59:12.191261 479.15 1284 4092 14132 604 338 -103
17:59:12.214901 479.16 1300 4060 14092 404 304 -70
17:59:12.236685 479.17 1268 4040 13772 201 256 -55
17:59:12.250148 479.18 1292 4208 13788 82 204 6
17:59:12.257180 479.19 1272 4108 14060 162 155 -41
17:59:12.258540 479.2 1356 4108 13752 243 134 -36
17:59:12.279246 479.21 1340 4124 13968 189 155 -35
17:59:12.279717 479.22 1408 4212 13828 203 198 -29
17:59:12.280130 479.23 1288 4208 13952 236 196 -19
17:59:12.280535 479.24 1228 4096 13920 211 220 -47
17:59:12.280942 479.25 1268 4148 13940 128 247 -61
17:59:12.286549 479.26 1344 4204 13844 106 237 -24
17:59:12.311442 479.27 1356 4116 13968 132 231 -14
17:59:12.318095 479.28 1388 4064 13960 208 265 -46
17:59:12.326025 479.29 1288 4136 13864 146 236 -42
17:59:12.347150 479.3 1316 4184 13708 18 187 -10
17:59:12.347441 479.31 1288 4148 13852 46 259 -23
17:59:12.375048 479.32 1312 4172 13948 68 269 -53
17:59:12.381055 479.33 1300 4188 13820 55 271 -31
17:59:12.381228 479.34 1296 4156 13892 7 247 -53
17:59:12.386203 479.35 1440 4148 14024 -58 213 -23
17:59:12.387387 479.36 1240 4208 13788 -86 249 11
17:59:12.409242 479.37 1264 4160 13928 -74 255 -42
17:59:12.417564 479.38 1296 4208 13888 -18 253 -22
17:59:12.440280 479.39 1336 4204 13972 -59 258 9
17:59:12.448744 479.4 1268 4224 13900 -44 275 -27
17:59:12.472253 479.41 1248 4160 13852 -79 218 -22
17:59:12.487280 479.42 1388 4240 13752 -104 249 -13
17:59:12.487424 479.43 1288 4184 13984 -94 264 0
17:59:12.491477 479.44 1308 4220 13660 -121 253 -12
17:59:12.493279 479.45 1376 4156 13824 -171 235 7
17:59:12.517704 479.46 1268 4104 13912 -167 236 -3
17:59:12.518031 479.47 1444 4180 13860 -185 224 -10
17:59:12.537727 479.48 1256 4208 13880 -176 247 -18
17:59:12.547167 479.49 1324 4172 13832 -200 249 0
17:59:12.547427 479.5 1164 4204 13896 -228 297 6
17:59:12.549111 479.51 1272 4236 13924 -242 292 -27
17:59:12.603355 479.52 1236 4188 13796 -315 289 -37
17:59:12.616926 479.53 1264 4272 13836 -383 261 -5
17:59:12.617083 479.54 1232 4080 13936 -451 227 -18
17:59:12.617338 479.55 1328 4120 13896 -513 227 13
17:59:12.617628 479.56 1284 4212 13904 -550 190 16
17:59:12.617864 479.57 1304 4064 13932 -585 197 -3
17:59:12.624578 479.58 1308 4216 13880 -622 189 18
17:59:12.648631 479.59 1384 4120 13968 -681 234 24
17:59:12.673013 479.6 1220 4192 13836 -785 207 23
17:59:12.682542 479.61 1308 4112 13852 -836 223 7
17:59:12.689984 479.62 1312 4140 14000 -847 196 31
17:59:12.691445 479.63 1252 4016 13980 -881 225 37
17:59:12.692327 479.64 1328 4024 13948 -902 208 39
17:59:12.712549 479.65 1292 3944 13760 -974 148 67
17:59:12.716092 479.66 1376 4040 13816 -1029 185 61
17:59:12.716270 479.67 1340 4004 13944 -1048 195 64
17:59:12.721568 479.68 1292 4040 13908 -1065 143 63
17:59:12.745535 479.69 1304 3944 13796 -1108 113 106
17:59:12.775258 479.7 1344 3988 14016 -1157 85 102
17:59:12.783590 479.71 1336 3848 14080 -1201 126 84
17:59:12.783859 479.72 1348 3904 13888 -1269 153 82
17:59:12.784059 479.73 1256 3920 14008 -1261 124 65
17:59:12.810067 479.74 1292 3856 14132 -1302 167 102
17:59:12.819239 479.75 1216 3836 13900 -1376 128 108
17:59:12.819586 479.76 1324 3828 13944 -1510 132 111
17:59:12.838701 479.77 1300 3680 13856 -1636 80 134
17:59:12.850248 479.78 1272 3628 13752 -1652 43 154
17:59:12.850381 479.79 1348 3604 13864 -1556 77 119
17:59:12.876965 479.8 1276 3644 14080 -1276 230 111
17:59:12.906699 479.81 1436 3744 14160 -1114 263 58
17:59:12.916777 479.82 1324 3708 14112 -1128 240 49
17:59:12.917008 479.83 1296 3596 13984 -1410 151 106
17:59:12.917169 479.84 1216 3464 13856 -1618 87 139
17:59:12.917388 479.85 1384 3528 14056 -1470 -87 147
17:59:12.917629 479.86 1456 3484 14272 -1304 -61 158
17:59:12.926391 479.87 1284 3600 14040 -1637 210 234
17:59:12.928676 479.88 1340 3480 13672 -2476 -48 254
17:59:12.972040 479.89 1516 3304 14404 -1618 187 113
17:59:12.984858 479.9 1368 3452 14192 -850 97 84
17:59:12.985046 479.91 1268 3428 13828 -1757 -383 257
17:59:12.989978 479.92 1436 3184 14112 -1633 -24 190
17:59:12.990963 479.93 1252 3276 13736 -1548 -90 267
17:59:12.992383 479.94 1392 3132 13516 -2137 -377 332
17:59:13.027575 479.95 1676 3020 14016 -1115 17 173
17:59:13.028624 479.96 1464 3248 14428 -565 -39 69
17:59:13.030571 479.97 1424 3268 14404 -870 -22 116
17:59:13.052507 479.98 1520 3316 14192 -1276 -31 132
17:59:13.052637 479.99 1248 3312 14180 -1538 -42 202
17:59:13.052725 480.0 1372 3160 14100 -1572 13 187
17:59:13.059452 480.01 1336 3128 14076 -1590 30 154
17:59:13.085099 480.02 1324 3112 14028 -1694 94 166
17:59:13.087123 480.03 1372 2916 13884 -1816 67 142
17:59:13.110552 480.04 1468 2884 13880 -1787 -29 163
17:59:13.121087 480.05 1432 2752 13912 -1502 -52 125
17:59:13.121221 480.06 1504 2840 14112 -1140 -63 104
17:59:13.121365 480.07 1528 2808 14148 -884 31 78
17:59:13.144108 480.08 1512 2796 14192 -880 54 31
17:59:13.156257 480.09 1508 2852 14320 -1068 135 59
17:59:13.188723 480.1 1364 2808 14256 -1234 146 65
17:59:13.189848 480.11 1512 2764 14168 -1301 144 77
17:59:13.192332 480.12 1520 2772 14116 -1349 116 74
17:59:13.194098 480.13 1420 2772 14132 -1436 45 92
17:59:13.195561 480.14 1484 2612 14068 -1553 32 82
17:59:13.210183 480.15 1484 2708 14076 -1629 26 104
17:59:13.226486 480.16 1556 2628 14088 -1525 51 57
17:59:13.227543 480.17 1500 2508 14248 -1418 78 52
17:59:13.243291 480.18 1436 2612 14152 -1328 48 24
17:59:13.252200 480.19 1504 2600 14312 -1172 70 37
17:59:13.263998 480.2 1476 2612 14292 -1026 224 38
17:59:13.293468 480.21 1488 2664 14256 -987 211 49
17:59:13.293579 480.22 1568 2556 14144 -1025 59 10
17:59:13.293642 480.23 1464 2540 14344 -804 354 53
17:59:13.311521 480.24 1396 2524 13960 -1117 183 57
17:59:13.325624 480.25 1484 2384 13924 -1393 124 63
17:59:13.326023 480.26 1540 2184 14020 -1237 -40 42
17:59:13.326361 480.27 1564 2408 14196 -644 109 -23
17:59:13.342046 480.28 1612 2508 14244 -660 93 -20
17:59:13.350743 480.29 1404 2380 14144 -989 97 -26
17:59:13.361584 480.3 1568 2404 14284 -975 97 4
17:59:13.406242 480.31 1464 2364 14348 -1076 15 0
17:59:13.407971 480.32 1440 2340 14388 -1139 133 -10
17:59:13.410096 480.33 1596 2304 14284 -1038 96 -21
17:59:13.411404 480.34 1584 2336 14268 -906 123 -76
17:59:13.412709 480.35 1512 2272 14200 -1058 185 -43
17:59:13.427507 480.36 1540 2204 14312 -1170 143 -52
17:59:13.444865 480.37 1580 2160 14240 -1296 168 -6
17:59:13.448140 480.38 1512 2124 14404 -1225 169 -59
17:59:13.471337 480.39 1540 2128 14308 -1224 254 -86
17:59:13.471588 480.4 1524 2112 14176 -1343 134 -72
17:59:13.481412 480.41 1520 2064 14120 -1415 92 -30
17:59:13.507779 480.42 1536 2020 14296 -1409 73 -37
17:59:13.507938 480.43 1500 2084 14244 -1328 138 -63
17:59:13.522242 480.44 1480 2036 14452 -1273 170 -74
17:59:13.542059 480.45 1484 2044 14356 -1496 123 -75
17:59:13.542205 480.46 1548 1996 14044 -1671 94 -41
17:59:13.542462 480.47 1520 1888 14316 -1755 69 -76
17:59:13.544353 480.48 1552 2012 14240 -1760 38 -49
17:59:13.564574 480.49 1648 1892 14288 -1721 163 -88
17:59:13.573140 480.5 1456 1952 14384 -1754 210 -138
17:59:13.576466 480.51 1528 1752 14088 -1881 54 -107
17:59:13.602864 480.52 1528 1724 14220 -1696 -27 -75
17:59:13.605072 480.53 1608 1648 14168 -1474 17 -43
17:59:13.630340 480.54 1600 1672 14300 -1308 -2 -65
17:59:13.639127 480.55 1648 1652 14176 -1228 85 -34
17:59:13.639247 480.56 1672 1616 14312 -1196 90 -47
17:59:13.639339 480.57 1576 1608 14224 -1112 17 -44
17:59:13.661245 480.58 1680 1596 14272 -1156 82 -49
17:59:13.674194 480.59 1572 1624 14304 -1068 43 -82
17:59:13.675984 480.6 1704 1524 14260 -1003 167 -38
17:59:13.677222 480.61 1600 1528 14256 -1044 111 -70
17:59:13.682228 480.62 1640 1504 14428 -960 57 -51
17:59:13.696640 480.63 1584 1464 14348 -1022 44 -59
17:59:13.743604 480.64 1640 1440 14196 -995 12 -40
17:59:13.767123 480.65 1588 1372 14384 -1052 -87 -59
17:59:13.771134 480.66 1624 1348 14216 -977 -90 -32
17:59:13.771261 480.67 1564 1260 14320 -874 59 26
17:59:13.772168 480.68 1648 1384 14396 -722 -99 39
17:59:13.773363 480.69 1680 1412 14268 -936 59 7
17:59:13.781510 480.7 1656 1268 14204 -740 -7 -32
17:59:13.783051 480.71 1692 1328 14264 -737 45 28
17:59:13.805872 480.72 1640 1304 14252 -617 34 31
17:59:13.824876 480.73 1584 1232 14204 -459 41 22
17:59:13.842486 480.74 1600 1268 14128 -336 133 6
17:59:13.842694 480.75 1756 1292 14096 -170 195 22
17:59:13.842968 480.76 1784 1272 14240 33 236 21
17:59:13.843086 480.77 1724 1320 14240 260 299 2
17:59:13.860321 480.78 1680 1364 14212 368 262 32
17:59:13.882627 480.79 1636 1376 14044 475 263 29
17:59:13.883681 480.8 1636 1360 14072 563 154 68
17:59:13.885291 480.81 1712 1260 14044 755 228 87
17:59:13.909094 480.82 1712 1252 14264 1136 375 35
17:59:13.909262 480.83 1708 1388 14356 1382 466 -5
17:59:13.914473 480.84 1604 1540 14344 1354 567 -53
17:59:13.958835 480.85 1492 1480 14316 1199 497 -34
17:59:13.973440 480.86 1424 1500 14104 1147 410 3
17:59:13.973797 480.87 1684 1592 14140 1187 291 6
17:59:13.974070 480.88 1656 1632 14400 1407 409 -36
17:59:13.976135 480.89 1568 1636 14708 1228 641 41
17:59:13.977878 480.9 1408 1812 13788 278 467 68
17:59:13.999051 480.91 1700 1532 14232 318 247 91
17:59:14.010273 480.92 1800 1588 14700 1929 579 -83
17:59:14.014455 480.93 1496 1892 13844 1279 26 7
17:59:14.015489 480.94 1680 1596 14136 1031 166 29
17:59:14.036858 480.95 1576 1564 14156 2170 587 -52
17:59:14.040302 480.96 1344 1928 13748 1099 -13 74
17:59:14.049346 480.97 1692 1712 14048 667 71 129
17:59:14.073785 480.98 1784 1672 14284 2048 566 -28
17:59:14.076000 480.99 1568 1988 14764 2330 751 -124
17:59:14.098741 481.0 1428 2084 14584 1678 475 -48
17:59:14.108613 481.01 1552 2180 14464 1268 768 -63
17:59:14.111431 481.02 1416 2068 14472 773 459 34
17:59:14.113323 481.03 1576 2160 14224 924 451 0
17:59:14.116951 481.04 1636 2208 14468 670 53 64
17:59:14.135205 481.05 1556 2136 14192 662 351 22
17:59:14.161346 481.06 1464 2068 13972 620 532 -28
17:59:14.175857 481.07 1496 2016 13948 769 380 20
17:59:14.178685 481.08 1500 2068 14052 1179 270 11
17:59:14.179699 481.09 1560 2068 14156 1486 320 5
17:59:14.195221 481.1 1496 2156 14408 1604 315 -1
17:59:14.210944 481.11 1628 2156 14364 1504 374 0
17:59:14.216497 481.12 1524 2372 14292 1337 522 -63
17:59:14.217908 481.13 1556 2288 14292 1107 429 -48
17:59:14.239904 481.14 1408 2388 14176 896 340 -27
17:59:14.252832 481.15 1540 2292 14244 842 391 -44
17:59:14.254388 481.16 1528 2476 14144 938 280 -9
17:59:14.256991 481.17 1504 2400 14188 862 135 -26
17:59:14.276881 481.18 1508 2416 14188 875 393 -10
17:59:14.291956 481.19 1504 2488 14008 881 374 -13
17:59:14.292150 481.2 1544 2352 14240 1024 245 8
17:59:14.317580 481.21 1448 2552 14072 1208 367 26
17:59:14.325859 481.22 1480 2420 14288 1369 315 -8
17:59:14.326118 481.23 1384 2636 14152 1483 355 -72
17:59:14.326534 481.24 1408 2704 14524 1527 631 -104
17:59:14.334334 481.25 1320 2708 14152 1285 647 -72
17:59:14.351602 481.26 1376 2756 13908 776 453 -32
17:59:14.383656 481.27 1488 2760 14120 818 484 -74
17:59:14.401274 481.28 1480 2716 14000 853 374 -75
17:59:14.402171 481.29 1484 2660 14160 1098 393 -118
17:59:14.404032 481.3 1284 2704 14160 1273 358 -122
17:59:14.415765 481.31 1312 2804 14240 1107 302 -62
17:59:14.426364 481.32 1496 2820 14160 994 297 -67
17:59:14.434030 481.33 1440 2872 14096 897 215 -43
17:59:14.435420 481.34 1444 2912 14224 809 302 -54
17:59:14.448877 481.35 1380 2932 14180 884 209 -60
17:59:14.459654 481.36 1592 2980 14164 1091 259 -102
17:59:14.484291 481.37 1616 2980 14084 1194 301 -88
17:59:14.493468 481.38 1388 2944 14100 1082 363 -100
17:59:14.493840 481.39 1408 3000 14096 981 335 -81
17:59:14.495445 481.4 1452 2972 14104 894 379 -109
17:59:14.518536 481.41 1444 2980 14220 995 338 -87
17:59:14.526991 481.42 1356 3080 14240 1005 384 -57
17:59:14.531458 481.43 1488 3080 13960 889 294 -59
17:59:14.533254 481.44 1436 3092 14096 943 346 -78
17:59:14.554473 481.45 1440 3212 14080 1007 349 -82
17:59:14.563516 481.46 1364 3128 14112 1060 356 -112
17:59:14.566477 481.47 1432 3196 13944 1013 335 -103
17:59:14.590479 481.48 1312 3240 14096 764 318 -84
17:59:14.613913 481.49 1332 3320 14100 759 339 -89
17:59:14.627973 481.5 1420 3196 14096 700 334 -82
17:59:14.632930 481.51 1368 3316 13988 654 336 -67
17:59:14.634583 481.52 1340 3280 14072 644 286 -41
17:59:14.635812 481.53 1368 3316 14028 639 281 -39
17:59:14.655543 481.54 1344 3320 13852 643 264 -77
17:59:14.659153 481.55 1340 3340 14016 729 300 -65
17:59:14.659321 481.56 1380 3368 13936 754 264 -66
17:59:14.663968 481.57 1512 3420 14032 780 289 -66
17:59:14.689221 481.58 1384 3388 14056 775 296 -37
17:59:14.699637 481.59 1424 3440 14048 763 285 -49
17:59:14.712396 481.6 1340 3404 14068 768 311 -60
17:59:14.728259 481.61 1408 3396 14024 750 328 -84
17:59:14.732027 481.62 1432 3488 14032 730 354 -108
17:59:14.753802 481.63 1368 3556 14024 757 317 -83
17:59:14.762712 481.64 1368 3600 13996 713 343 -88
17:59:14.762858 481.65 1344 3624 14088 732 309 -72
17:59:14.772527 481.66 1284 3564 14024 717 306 -37
17:59:14.793451 481.67 1444 3696 13932 716 306 -76
17:59:14.793609 481.68 1260 3644 13992 670 271 -97
17:59:14.819522 481.69 1292 3584 13952 638 262 -61
17:59:14.827132 481.7 1340 3584 13860 667 285 -76
17:59:14.827378 481.71 1280 3660 14000 663 327 -70
17:59:14.852996 481.72 1344 3672 13872 680 326 -70
17:59:14.860919 481.73 1236 3808 13872 664 294 -71
17:59:14.861167 481.74 1368 3680 13900 639 307 -50
17:59:14.872437 481.75 1304 3792 13928 605 315 -73
17:59:14.895902 481.76 1328 3804 14040 605 318 -65
17:59:14.896095 481.77 1384 3776 13964 623 326 -72
17:59:14.896278 481.78 1368 3776 14004 600 293 -73
17:59:14.906459 481.79 1276 3960 13888 556 372 -103
17:59:14.927222 481.8 1300 3808 13888 642 339 -75
17:59:14.932914 481.81 1336 3892 13876 596 392 -79
17:59:14.934148 481.82 1344 3880 13948 512 364 -52
17:59:14.935555 481.83 1248 3912 13744 388 266 -38
17:59:14.970098 481.84 1308 3852 13772 263 217 -40
17:59:14.971769 481.85 1408 3848 13816 288 296 -54
17:59:14.972355 481.86 1364 3872 14056 531 373 -68
17:59:14.990070 481.87 1296 3912 14036 719 462 -116
17:59:14.996010 481.88 1260 4044 14080 637 419 -85
17:59:15.004014 481.89 1220 4048 13828 384 364 -77
17:59:15.006063 481.9 1232 3936 13964 289 348 -67
17:59:15.026357 481.91 1244 3844 13872 391 272 -71
17:59:15.029499 481.92 1256 4024 14020 302 237 -45
17:59:15.048696 481.93 1148 3952 13628 -467 279 82
17:59:15.061593 481.94 1348 3804 13772 -594 28 58
17:59:15.063665 481.95 1436 3844 14384 591 508 -108
17:59:15.064765 481.96 1176 4180 14032 715 297 -135
17:59:15.086215 481.97 1280 4024 13728 -53 57 5
17:59:15.096857 481.98 1372 3988 13892 225 392 -27
17:59:15.099069 481.99 1120 4012 13416 -444 71 60
17:59:15.106550 482.0 1452 3732 13540 -455 40 116
17:59:15.121888 482.01 1400 3912 13708 70 87 72
17:59:15.153159 482.02 1436 4012 14124 297 -11 30
17:59:15.162479 482.03 1352 4068 13936 285 -103 23
17:59:15.162758 482.04 1256 4092 13996 107 -70 43
17:59:15.188059 482.05 1252 4204 14160 41 -17 58
17:59:15.200552 482.06 1280 4084 13960 111 115 34
17:59:15.200670 482.07 1336 4084 14024 119 238 1
17:59:15.207087 482.08 1300 4100 13896 130 285 -11
17:59:15.232741 482.09 1432 4096 13812 93 220 -17
17:59:15.233068 482.1 1268 4032 13740 192 289 -49
17:59:15.233439 482.11 1360 3996 13772 346 227 -34
17:59:15.272521 482.12 1296 4080 13904 472 195 -33
17:59:15.273377 482.13 1388 4124 14080 481 219 -41
17:59:15.274672 482.14 1320 4080 13852 273 223 -25
17:59:15.291547 482.15 1332 4012 13952 241 223 -37
17:59:15.299157 482.16 1356 4020 13888 191 288 -40
17:59:15.299301 482.17 1260 4148 13972 134 309 -45
17:59:15.304083 482.18 1300 4120 13920 63 304 -31
17:59:15.305453 482.19 1304 4072 13744 5 301 -34
17:59:15.321292 482.2 1164 4120 13880 12 261 -35
17:59:15.329496 482.21 1364 4116 13908 -24 258 -28
17:59:15.341322 482.22 1324 4060 14000 10 269 -27
17:59:15.365264 482.23 1288 4132 13868 39 285 -26
17:59:15.365581 482.24 1216 4192 13668 101 314 -36
17:59:15.432376 482.25 1300 4108 13884 113 329 -34
17:59:15.437578 482.26 1280 4208 13900 133 381 -75
17:59:15.454979 482.27 1336 4284 13984 172 337 -59
17:59:15.464061 482.28 1340 4268 13936 95 282 -67
17:59:15.464380 482.29 1276 4120 14104 244 680 -117
17:59:15.464620 482.3 1184 4200 13592 -429 171 32
17:59:15.464846 482.31 1432 4136 13708 -338 354 -4
17:59:15.465068 482.32 1324 4120 14004 156 397 -58
17:59:15.465287 482.33 1256 4248 13948 -2 329 -42
17:59:15.491486 482.34 1308 4224 13888 -135 265 -17
17:59:15.500290 482.35 1256 4160 13788 -294 199 -19
17:59:15.500422 482.36 1156 4276 13908 -219 222 -13
17:59:15.527565 482.37 1248 4168 13808 -240 175 -29
17:59:15.533463 482.38 1312 4156 13864 -272 203 -16
17:59:15.533642 482.39 1284 4180 13944 -225 148 -14
17:59:15.533880 482.4 1212 4256 13996 -235 208 -1
17:59:15.543956 482.41 1248 4308 14004 -330 240 5
17:59:15.565786 482.42 1280 4208 13908 -408 212 21
17:59:15.565902 482.43 1284 4208 13888 -526 227 26
17:59:15.587534 482.44 1176 4176 13884 -547 222 4
17:59:15.597132 482.45 1332 4068 14044 -484 222 -2
17:59:15.608024 482.46 1288 4108 13972 -594 260 18
17:59:15.609151 482.47 1256 4228 13816 -790 197 54
17:59:15.609627 482.48 1200 4096 13664 -850 183 44
17:59:15.626338 482.49 1304 4084 13944 -813 185 52
17:59:15.642197 482.5 1280 4124 13816 -849 176 65
17:59:15.664115 482.51 1176 3984 13840 -871 197 78
17:59:15.719969 482.52 1152 3984 13872 -924 142 57
17:59:15.731343 482.53 1324 4000 13680 -1098 174 87
17:59:15.731465 482.54 1368 4068 13780 -1167 182 76
17:59:15.731552 482.55 1252 3952 13836 -1132 227 73
17:59:15.731636 482.56 1268 3944 13952 -1052 212 82
17:59:15.731720 482.57 1240 3892 13968 -1101 196 60
17:59:15.744763 482.58 1280 3860 13864 -1150 162 62
17:59:15.765564 482.59 1296 3808 13900 -1110 138 66
17:59:15.765695 482.6 1268 3876 13916 -1069 168 99
17:59:15.765793 482.61 1280 3940 14016 -1165 193 103
17:59:15.766019 482.62 1272 3764 14140 -1260 180 109
17:59:15.790835 482.63 1348 3816 13996 -1355 217 81
17:59:15.799758 482.64 1284 3844 13888 -1468 162 95
17:59:15.799928 482.65 1132 3776 13988 -1442 181 95
17:59:15.800049 482.66 1300 3780 13844 -1454 155 112
17:59:15.800490 482.67 1352 3632 13908 -1432 118 89
17:59:15.820306 482.68 1340 3668 13980 -1412 189 102
17:59:15.839749 482.69 1308 3676 14072 -1442 172 117
17:59:15.846916 482.7 1416 3632 13980 -1534 198 99
17:59:15.872812 482.71 1340 3612 13880 -1545 140 99
17:59:15.872989 482.72 1192 3572 13992 -1523 106 114
17:59:15.873108 482.73 1312 3504 14104 -1555 85 135
17:59:15.887412 482.74 1340 3404 14020 -1564 133 114
17:59:15.905425 482.75 1172 3468 13888 -1577 109 119
17:59:15.905681 482.76 1304 3392 14044 -1601 107 161
17:59:15.905861 482.77 1172 3328 14104 -1578 82 146
17:59:15.921393 482.78 1228 3400 14112 -1617 112 115
17:59:15.932224 482.79 1368 3308 14224 -1748 100 147
17:59:15.941510 482.8 1304 3252 14256 -1845 90 141
17:59:15.942978 482.81 1388 3208 13984 -1813 83 114
17:59:15.959325 482.82 1320 3244 14192 -1829 -3 158
17:59:15.966733 482.83 1356 3284 14024 -1803 12 152
17:59:15.986121 482.84 1316 3116 14040 -1852 97 135
17:59:16.002712 482.85 1312 3128 13992 -1894 88 136
17:59:16.002879 482.86 1304 3072 14212 -1845 53 123
17:59:16.054657 482.87 1280 3052 14040 -1921 34 143
17:59:16.065271 482.88 1316 2928 14044 -1928 -7 182
17:59:16.065395 482.89 1356 2952 14156 -1899 55 131
17:59:16.065472 482.9 1320 2832 14268 -1820 62 63
17:59:16.065543 482.91 1420 2840 14192 -1870 32 89
17:59:16.065613 482.92 1416 2812 14144 -2087 12 93
17:59:16.065688 482.93 1456 2840 14240 -1986 28 54
17:59:16.074105 482.94 1460 2808 14224 -2108 38 33
17:59:16.091649 482.95 1380 2748 14248 -2301 29 44
17:59:16.100415 482.96 1356 2592 14128 -2258 -36 47
17:59:16.126653 482.97 1428 2704 14128 -2230 -65 17
17:59:16.134526 482.98 1284 2516 14080 -2311 -70 45
17:59:16.134623 482.99 1424 2500 14208 -2111 -143 -4
17:59:16.134697 483.0 1524 2408 14124 -1915 -123 22
17:59:16.162611 483.01 1436 2464 14224 -1840 -76 4
17:59:16.167360 483.02 1484 2296 14256 -1781 -115 36
17:59:16.167492 483.03 1376 2276 14044 -1671 -92 -6
17:59:16.171311 483.04 1448 2248 14104 -1745 -163 54
17:59:16.196510 483.05 1464 2292 14092 -1727 -204 61
17:59:16.202416 483.06 1524 2164 14168 -1543 -33 8
17:59:16.212190 483.07 1556 2200 14440 -1038 164 -15
17:59:16.213568 483.08 1428 2252 14336 -1091 82 -8
17:59:16.216967 483.09 1540 2296 14376 -1296 39 10
17:59:16.242628 483.1 1376 2132 14144 -1432 -19 13
17:59:16.243018 483.11 1400 2072 13904 -1425 -177 37
17:59:16.254453 483.12 1524 2092 14344 -1170 -114 29
17:59:16.280002 483.13 1508 2100 14560 -1189 193 -37
17:59:16.287301 483.14 1416 2264 13832 -2162 172 8
17:59:16.287421 483.15 1484 1992 13876 -2723 -260 61
17:59:16.291431 483.16 1576 1864 14908 -1432 201 -89
17:59:16.307506 483.17 1488 1920 14208 -808 -229 -60
17:59:16.319544 483.18 1380 1924 13732 -1993 -681 86
17:59:16.343243 483.19 1700 1784 14512 -1292 131 -56
17:59:16.353015 483.2 1364 1752 13792 -1645 -253 60
17:59:16.353222 483.21 1376 1640 13704 -2021 -521 98
17:59:16.353423 483.22 1736 1616 14112 -1051 -30 36
17:59:16.359889 483.23 1628 1836 14836 -330 250 -75
17:59:16.375376 483.24 1476 1944 14760 -444 315 -51
17:59:16.391299 483.25 1500 1976 14388 -971 196 -24
17:59:16.393798 483.26 1388 1848 14152 -1204 139 -24
17:59:16.414275 483.27 1496 1712 14264 -1286 0 57
17:59:16.422354 483.28 1492 1716 14236 -1238 -109 56
17:59:16.445711 483.29 1604 1564 13972 -1119 -19 20
17:59:16.457610 483.3 1668 1496 14000 -868 14 21
17:59:16.457802 483.31 1576 1524 13912 -519 44 92
17:59:16.458038 483.32 1572 1520 14012 -137 100 71
17:59:16.478967 483.33 1656 1628 14172 385 104 46
17:59:16.488833 483.34 1624 1496 14196 748 237 16
17:59:16.495364 483.35 1560 1608 14428 990 275 10
17:59:16.515485 483.36 1528 1640 14268 1033 322 39
17:59:16.519424 483.37 1748 1764 14468 975 374 21
17:59:16.519609 483.38 1616 1704 14272 944 426 34
17:59:16.544834 483.39 1640 1772 14172 859 434 -9
17:59:16.559889 483.4 1428 1840 14324 727 431 -25
17:59:16.561232 483.41 1600 1732 14088 687 386 -16
17:59:16.562507 483.42 1524 1740 14040 618 319 -33
17:59:16.572558 483.43 1520 1792 14248 755 274 -3
17:59:16.590994 483.44 1516 1872 14168 939 302 -24
17:59:16.594274 483.45 1540 1896 14240 1173 336 -24
17:59:16.597393 483.46 1552 1952 14144 1373 418 -19
17:59:16.622699 483.47 1508 2016 14216 1555 459 -19
17:59:16.644683 483.48 1452 2012 14236 1551 509 -63
17:59:16.652276 483.49 1500 1936 14276 1435 430 -26
17:59:16.652656 483.5 1536 2096 14316 1590 633 -10
17:59:16.652960 483.51 1516 2028 13900 1190 309 45
17:59:16.653167 483.52 1584 2008 14212 1151 372 13
17:59:16.667195 483.53 1480 2044 14228 1476 271 -40
17:59:16.685946 483.54 1548 2248 14280 1547 362 -76
17:59:16.689079 483.55 1584 2256 14204 1743 524 -103
17:59:16.717584 483.56 1488 2272 14156 1557 498 -76
17:59:16.722835 483.57 1444 2304 14184 1369 434 -27
17:59:16.722979 483.58 1580 2396 14284 1307 386 -48
17:59:16.781943 483.59 1476 2396 14260 1256 421 -88
17:59:16.787911 483.6 1552 2476 14176 1268 346 -76
17:59:16.789514 483.61 1484 2392 14248 1375 430 -86
17:59:16.792158 483.62 1508 2524 14256 1297 411 -82
17:59:16.793412 483.63 1452 2508 14244 1109 432 -45
17:59:16.794631 483.64 1476 2492 14236 909 467 -65
17:59:16.796017 483.65 1464 2520 14136 786 362 -55
17:59:16.816337 483.66 1460 2484 14256 882 381 -58
17:59:16.826889 483.67 1480 2708 14244 896 375 -50
17:59:16.827068 483.68 1488 2536 14016 838 349 -67
17:59:16.832049 483.69 1428 2504 14068 979 418 -55
17:59:16.858892 483.7 1460 2500 14128 1137 378 -56
17:59:16.859128 483.71 1356 2576 14320 1265 361 -78
17:59:16.883372 483.72 1324 2652 14160 1290 352 -55
17:59:16.894247 483.73 1392 2772 14088 1200 357 -42
17:59:16.894394 483.74 1488 2792 14196 1105 439 11
17:59:16.894626 483.75 1448 2916 14324 1017 439 -73
17:59:16.911658 483.76 1468 2912 14116 1007 420 -32
17:59:16.922667 483.77 1400 2944 14096 973 413 -41
17:59:16.931433 483.78 1384 2976 14200 941 413 -59
17:59:16.933077 483.79 1468 3036 14288 898 392 -46
17:59:16.954367 483.8 1388 2956 14212 882 354 -51
17:59:16.975972 483.81 1344 2984 14104 922 397 -80
17:59:16.985828 483.82 1380 2964 14204 929 321 -32
17:59:16.986032 483.83 1332 3044 14084 861 359 -76
17:59:16.989359 483.84 1348 2988 14032 891 341 -37
17:59:17.013656 483.85 1464 2972 13948 891 340 -48
17:59:17.021002 483.86 1344 3028 14036 919 375 -42
17:59:17.021187 483.87 1424 3140 14048 812 341 -108
17:59:17.026452 483.88 1372 3036 14076 895 349 -30
17:59:17.047324 483.89 1376 3096 13984 856 385 -104
17:59:17.054830 483.9 1340 3136 14104 934 375 -133
17:59:17.055000 483.91 1440 3240 14112 908 343 -98
17:59:17.064182 483.92 1424 3276 14248 898 410 -111
17:59:17.089415 483.93 1420 3164 14060 947 336 -57
17:59:17.091552 483.94 1428 3284 14168 858 334 -96
17:59:17.132162 483.95 1376 3212 14036 851 295 -52
17:59:17.134004 483.96 1364 3232 14000 821 296 -64
17:59:17.154572 483.97 1256 3316 14068 798 321 -61
17:59:17.154742 483.98 1372 3408 14100 802 323 -63
17:59:17.154905 483.99 1288 3380 14052 823 350 -76
17:59:17.155036 484.0 1396 3428 14152 765 365 -75
17:59:17.192416 484.01 1368 3472 14008 658 340 -55
17:59:17.194500 484.02 1344 3388 14112 673 325 -33
17:59:17.194640 484.03 1412 3384 14128 684 377 -81
17:59:17.197737 484.04 1312 3480 14084 711 348 -83
17:59:17.212128 484.05 1340 3480 14044 682 355 -62
17:59:17.228225 484.06 1288 3492 13812 568 351 -64
17:59:17.231586 484.07 1280 3480 13984 515 259 -44
17:59:17.232932 484.08 1300 3488 13804 423 226 -46
17:59:17.246396 484.09 1316 3504 13872 538 240 -34
17:59:17.256789 484.1 1416 3484 14184 750 358 -91
17:59:17.259925 484.11 1356 3552 14168 969 391 -93
17:59:17.266625 484.12 1348 3672 14084 882 348 -136
17:59:17.288550 484.13 1236 3644 13936 679 309 -90
17:59:17.314030 484.14 1176 3568 13956 550 281 -56
17:59:17.334154 484.15 1252 3700 14072 656 235 -80
17:59:17.361638 484.16 1272 3544 14104 680 200 -52
17:59:17.361782 484.17 1076 3672 13776 36 364 47
17:59:17.361993 484.18 1528 3644 13764 -348 -8 57
17:59:17.362210 484.19 1612 3520 14556 814 475 -85
17:59:17.378892 484.2 1332 3860 14220 1146 321 -131
17:59:17.394768 484.21 1220 3736 13840 124 29 -37
17:59:17.395001 484.22 1400 3584 14108 460 448 -84
17:59:17.395244 484.23 1152 3712 13772 -136 69 61
17:59:17.405121 484.24 1356 3500 13504 -437 -69 107
17:59:17.429720 484.25 1544 3456 13780 206 69 33
17:59:17.430478 484.26 1424 3692 14036 593 -39 -10
17:59:17.431865 484.27 1416 3680 14256 734 -155 0
17:59:17.432703 484.28 1236 3800 14196 609 -120 11
17:59:17.450531 484.29 1332 3884 14012 430 -11 8
17:59:17.463995 484.3 1304 3844 14000 427 104 8
17:59:17.465788 484.31 1256 3844 13892 456 233 11
17:59:17.486454 484.32 1404 3896 14092 404 278 -57
17:59:17.491976 484.33 1384 3944 13816 370 274 -62
17:59:17.501740 484.34 1276 3856 13648 334 316 -33
17:59:17.523400 484.35 1292 3764 13836 370 307 -48
17:59:17.527009 484.36 1260 3860 13820 617 278 -60
17:59:17.546020 484.37 1364 3768 13896 702 207 -41
17:59:17.567393 484.38 1404 3824 13980 616 215 -34
17:59:17.568582 484.39 1356 3892 13920 509 240 -45
17:59:17.591250 484.4 1404 3916 14052 410 246 -42
17:59:17.591550 484.41 1348 3872 13880 377 278 -42
17:59:17.591799 484.42 1352 3856 13820 300 313 -29
17:59:17.592103 484.43 1316 3964 14044 293 309 -40
17:59:17.620403 484.44 1340 3928 13840 249 284 -32
17:59:17.653667 484.45 1284 3960 13912 228 283 -24
17:59:17.656879 484.46 1268 3924 13908 207 297 -28
17:59:17.657025 484.47 1224 3948 13968 232 259 -47
17:59:17.657958 484.48 1284 4016 14028 265 285 -30
17:59:17.659082 484.49 1280 3996 13836 262 333 -55
17:59:17.666975 484.5 1212 4132 13932 357 342 -30
17:59:17.669873 484.51 1288 4136 13964 361 354 -72
17:59:17.693390 484.52 1196 4224 13852 361 319 -75
17:59:17.713064 484.53 1292 4072 14096 436 428 -72
17:59:17.726280 484.54 1192 4040 13888 336 599 -85
17:59:17.726625 484.55 1220 4028 13508 -287 155 -3
17:59:17.726936 484.56 1420 3972 13756 113 422 -55
17:59:17.752634 484.57 1132 3968 13956 496 341 -78
17:59:17.763376 484.58 1224 4040 13936 310 298 -80
17:59:17.768396 484.59 1348 4108 13732 105 264 -43
17:59:17.769589 484.6 1216 4112 13848 -12 197 11
17:59:17.771758 484.61 1228 4112 13936 25 211 14
17:59:17.796153 484.62 1248 4116 13916 128 153 21
17:59:17.801451 484.63 1368 4100 13776 63 189 -18
17:59:17.802395 484.64 1308 4048 13880 55 238 -27
17:59:17.817453 484.65 1216 4188 13944 132 249 -23
17:59:17.826351 484.66 1252 4148 13888 115 263 -30
17:59:17.826622 484.67 1252 4184 13856 -2 280 -25
17:59:17.837274 484.68 1228 4060 13800 -52 276 -15
17:59:17.862127 484.69 1312 4148 13788 -33 247 -11
17:59:17.864596 484.7 1256 4008 13872 54 235 -26
17:59:17.882805 484.71 1280 4144 13908 61 280 -17
17:59:17.929365 484.72 1284 4068 13912 -72 267 -12
17:59:17.933159 484.73 1256 4112 13872 -90 285 -21
17:59:17.937684 484.74 1196 4024 13728 -109 307 -18
17:59:17.951211 484.75 1284 4124 13932 -110 266 -22
17:59:17.959534 484.76 1384 4116 13860 -134 252 -44
17:59:17.959675 484.77 1312 4072 14080 -181 233 11
17:59:17.959795 484.78 1160 4188 13844 -214 245 -10
17:59:17.959890 484.79 1260 4188 13920 -203 246 10
17:59:17.962468 484.8 1396 4116 13944 -192 284 -13
17:59:17.964759 484.81 1288 4048 13924 -149 269 -16
17:59:17.986138 484.82 1140 4176 13900 -168 254 7
17:59:17.996087 484.83 1236 4112 13832 -218 252 -12
17:59:17.997793 484.84 1136 4176 14028 -198 250 -1
17:59:18.018993 484.85 1260 4220 13876 -163 251 -32
17:59:18.032580 484.86 1268 4156 13916 -261 261 2
17:59:18.032713 484.87 1200 4120 13924 -319 250 -28
17:59:18.045963 484.88 1200 4124 13908 -344 233 -16
17:59:18.065165 484.89 1176 4104 13972 -397 237 -5
17:59:18.065322 484.9 1212 4080 13960 -402 245 12
17:59:18.080643 484.91 1292 4076 13968 -391 232 0
17:59:18.095310 484.92 1276 4108 13988 -414 293 16
17:59:18.102522 484.93 1208 4132 13792 -508 248 9
17:59:18.104441 484.94 1224 4072 13936 -571 214 -9
17:59:18.117359 484.95 1160 4168 13876 -621 226 6
17:59:18.126149 484.96 1304 4088 13824 -679 211 20
17:59:18.138898 484.97 1244 4052 13996 -718 218 19
17:59:18.159649 484.98 1244 4032 13856 -742 167 32
17:59:18.185540 484.99 1244 4028 14072 -793 165 46
17:59:18.194500 485.0 1312 3972 13956 -778 223 42
17:59:18.194655 485.01 1304 4060 14016 -851 196 54
17:59:18.203253 485.02 1200 4032 13852 -977 151 55
17:59:18.204245 485.03 1304 3916 13896 -1027 182 63
17:59:18.205497 485.04 1188 3904 13896 -1005 203 45
17:59:18.224572 485.05 1268 3996 13904 -1030 192 69
17:59:18.234639 485.06 1248 3908 13980 -1110 235 70
17:59:18.234970 485.07 1180 3872 13900 -1198 190 64
17:59:18.258884 485.08 1216 3988 14064 -1256 216 93
17:59:18.280476 485.09 1240 3836 13836 -1300 194 91
17:59:18.299510 485.1 1204 3752 14080 -1386 151 85
17:59:18.299657 485.11 1260 3896 14188 -1444 158 124
17:59:18.299840 485.12 1228 3784 14124 -1501 198 111
17:59:18.300065 485.13 1208 3800 13984 -1581 124 104
17:59:18.324181 485.14 1268 3620 13924 -1683 119 152
17:59:18.335149 485.15 1344 3660 13940 -1603 132 147
17:59:18.335314 485.16 1292 3636 14072 -1621 97 142
17:59:18.335435 485.17 1200 3680 13968 -1572 103 138
17:59:18.356523 485.18 1248 3536 13916 -1604 68 128
17:59:18.365603 485.19 1296 3572 14064 -1486 116 113
17:59:18.403035 485.2 1372 3512 13924 -1561 47 152
17:59:18.405206 485.21 1332 3484 13940 -1584 116 142
17:59:18.422758 485.22 1256 3404 14088 -1489 128 105
17:59:18.432671 485.23 1328 3440 14132 -1457 135 80
17:59:18.432846 485.24 1272 3420 14032 -1493 189 111
17:59:18.432911 485.25 1208 3384 14044 -1551 202 109
17:59:18.432972 485.26 1260 3308 13988 -1877 0 138
17:59:18.436787 485.27 1216 3196 13908 -1992 -76 165
17:59:18.457557 485.28 1340 3164 14152 -1803 -24 155
17:59:18.471010 485.29 1336 3216 14252 -1412 121 113
17:59:18.475741 485.3 1224 3200 14336 -1283 150 51
17:59:18.496696 485.31 1224 3132 14256 -1430 112 92
17:59:18.497336 485.32 1232 3184 13964 -1638 34 120
17:59:18.497706 485.33 1188 2952 13884 -1780 -115 152
17:59:18.542656 485.34 1360 2924 14128 -1554 -147 168
17:59:18.552533 485.35 1248 2912 14328 -1376 -47 135
17:59:18.552633 485.36 1364 3128 13964 -2131 161 215
17:59:18.552697 485.37 1332 2928 13500 -2660 -248 174
17:59:18.552758 485.38 1556 2724 14548 -1575 100 53
17:59:18.556682 485.39 1320 2876 14152 -748 -26 50
17:59:18.575374 485.4 1260 2920 13604 -1960 -561 209
17:59:18.602207 485.41 1424 2760 14136 -1305 91 47
17:59:18.614363 485.42 1204 2712 13684 -1408 -162 171
17:59:18.615047 485.43 1308 2604 13688 -2080 -410 238
17:59:18.616305 485.44 1400 2452 14016 -1235 -48 103
17:59:18.616736 485.45 1484 2696 14596 -448 44 31
17:59:18.632101 485.46 1348 2792 14656 -677 60 22
17:59:18.660060 485.47 1384 2800 14452 -1092 -20 67
17:59:18.663777 485.48 1348 2724 14344 -1363 88 65
17:59:18.664309 485.49 1280 2760 14372 -1491 47 117
17:59:18.670106 485.5 1444 2748 14204 -1593 20 119
17:59:18.694021 485.51 1336 2664 14264 -1688 34 76
17:59:18.695870 485.52 1384 2468 14016 -1785 63 89
17:59:18.716302 485.53 1392 2388 14028 -1768 53 54
17:59:18.718030 485.54 1452 2252 13880 -1545 -63 59
17:59:18.759455 485.55 1480 2312 13980 -1080 -57 42
17:59:18.760795 485.56 1492 2352 14300 -794 -5 27
17:59:18.761932 485.57 1440 2272 14448 -700 71 8
17:59:18.766182 485.58 1484 2372 14252 -809 42 18
17:59:18.770487 485.59 1488 2332 14252 -979 198 37
17:59:18.787308 485.6 1456 2320 14232 -1014 116 37
17:59:18.796413 485.61 1392 2360 14100 -1025 96 38
17:59:18.796531 485.62 1524 2288 14256 -1095 47 21
17:59:18.813359 485.63 1544 2312 14168 -1124 51 -16
17:59:18.839862 485.64 1544 2260 14180 -1163 53 -6
17:59:18.841078 485.65 1556 2232 14104 -1210 56 2
17:59:18.842093 485.66 1536 2240 14152 -1124 55 36
17:59:18.859635 485.67 1400 2212 14168 -993 103 -13
17:59:18.870173 485.68 1412 2168 14208 -849 102 -12
17:59:18.874205 485.69 1392 2244 14300 -687 151 -31
17:59:18.875167 485.7 1420 2184 14320 -626 164 -7
17:59:18.886456 485.71 1396 2268 14240 -716 166 -26
17:59:18.899961 485.72 1496 2048 14204 -576 327 -43
17:59:18.923147 485.73 1420 2132 14160 -769 266 -7
17:59:18.931169 485.74 1476 2164 14060 -1134 109 37
17:59:18.933712 485.75 1524 2052 13972 -1072 30 21
17:59:18.935342 485.76 1524 2008 14180 -723 -40 -13
17:59:18.956217 485.77 1532 2036 14476 -518 17 -38
17:59:18.963433 485.78 1520 2044 14212 -568 56 -28
17:59:18.971111 485.79 1588 2064 14240 -721 71 -13
17:59:18.973117 485.8 1520 2032 14272 -749 -10 11
17:59:18.994230 485.81 1572 1960 14380 -870 -23 -13
17:59:19.001243 485.82 1560 2056 14312 -793 104 -41
17:59:19.006671 485.83 1404 2084 14312 -714 84 -42
17:59:19.031761 485.84 1508 1932 14348 -726 154 -30
17:59:19.036570 485.85 1448 1912 14320 -694 157 -70
17:59:19.059648 485.86 1476 1884 14184 -734 132 -29
17:59:19.071989 485.87 1488 1824 14284 -695 123 -4
17:59:19.072171 485.88 1448 1792 14172 -634 122 -19
17:59:19.072493 485.89 1572 1776 14248 -526 149 6
17:59:19.074229 485.9 1520 1840 14408 -466 106 -7
17:59:19.093122 485.91 1560 1796 13972 -493 116 -7
17:59:19.107442 485.92 1484 1788 14056 -410 105 8
17:59:19.108882 485.93 1552 1736 14244 -105 163 16
17:59:19.157242 485.94 1524 1852 14204 59 151 19
17:59:19.158357 485.95 1460 1868 14328 99 196 14
17:59:19.159687 485.96 1536 1792 14148 157 217 24
17:59:19.162020 485.97 1484 1836 14112 241 245 49
17:59:19.177680 485.98 1492 1924 14184 350 292 23
17:59:19.192262 485.99 1532 1912 14248 442 323 24
17:59:19.194067 486.0 1480 1980 14276 510 358 -18
17:59:19.215067 486.01 1480 2032 14148 584 315 -23
17:59:19.215329 486.02 1496 1968 14172 677 356 -26
17:59:19.215556 486.03 1516 2056 14260 730 365 -41
17:59:19.225604 486.04 1452 2116 14436 755 367 -6
17:59:19.279544 486.05 1496 2000 14116 752 351 -22
17:59:19.283865 486.06 1452 2104 14280 764 335 -26
17:59:19.284612 486.07 1604 2072 14256 761 403 -55
17:59:19.285842 486.08 1596 1984 14256 769 391 -60
17:59:19.287173 486.09 1536 2076 14252 844 379 -17
17:59:19.290317 486.1 1508 2112 14132 809 342 -29
17:59:19.312526 486.11 1456 2060 14204 889 310 -26
17:59:19.316800 486.12 1392 2096 14376 939 343 -37
17:59:19.317016 486.13 1500 2224 14292 954 347 -44
17:59:19.321564 486.14 1592 2128 14352 929 349 -42
17:59:19.329554 486.15 1428 2144 14144 936 403 -44
17:59:19.350342 486.16 1476 2224 14244 921 395 -58
17:59:19.405983 486.17 1536 2180 14100 897 334 -45
17:59:19.417455 486.18 1568 2292 14152 956 347 -31
17:59:19.417547 486.19 1420 2312 14256 961 362 -30
17:59:19.417614 486.2 1476 2344 14224 947 344 -33
17:59:19.417677 486.21 1384 2324 14080 889 322 -26
17:59:19.417737 486.22 1460 2492 14084 974 316 -16
17:59:19.429148 486.23 1436 2472 14304 1047 329 -21
17:59:19.449971 486.24 1484 2404 14164 1085 377 -25
17:59:19.450102 486.25 1492 2460 14248 1077 399 -24
17:59:19.450275 486.26 1452 2496 14084 1133 442 -55
17:59:19.477708 486.27 1400 2476 14256 1236 486 -47
17:59:19.488334 486.28 1420 2616 14128 1128 445 -53
17:59:19.488858 486.29 1476 2584 14240 1084 502 -86
17:59:19.490426 486.3 1452 2612 14248 1052 423 -71
17:59:19.508227 486.31 1472 2688 14088 943 393 -29
17:59:19.516459 486.32 1392 2612 14000 855 269 -33
17:59:19.516624 486.33 1488 2640 14084 890 247 -5
17:59:19.524049 486.34 1448 2592 14208 1131 387 -58
17:59:19.570974 486.35 1400 2712 14280 1529 527 -100
17:59:19.585287 486.36 1404 2828 14328 1516 512 -88
17:59:19.585522 486.37 1364 2796 14160 1357 521 -72
17:59:19.589878 486.38 1184 2824 14212 1248 498 -111
17:59:19.591011 486.39 1384 2848 13880 1242 345 -92
17:59:19.592095 486.4 1348 2724 14272 1259 402 -80
17:59:19.629510 486.41 1316 2956 14208 873 598 2
17:59:19.631250 486.42 1304 2924 13584 7 237 31
17:59:19.652619 486.43 1632 2816 14544 825 519 -122
17:59:19.652893 486.44 1496 3124 14520 1808 568 -181
17:59:19.653171 486.45 1240 3144 14088 438 -28 3
17:59:19.653441 486.46 1488 2932 14320 490 346 -102
17:59:19.659271 486.47 1248 2996 13940 747 345 -40
17:59:19.688407 486.48 1212 2992 13468 -358 -184 141
17:59:19.689602 486.49 1508 2880 13756 178 45 36
17:59:19.690744 486.5 1444 2944 13936 1088 145 -34
17:59:19.706693 486.51 1408 3148 14288 1388 87 -89
17:59:19.721935 486.52 1400 3168 14408 1272 99 -65
17:59:19.722338 486.53 1432 3272 14360 1112 148 -36
17:59:19.726640 486.54 1236 3300 14188 1024 237 -22
17:59:19.776698 486.55 1316 3364 14196 948 302 -18
17:59:19.787317 486.56 1352 3404 14020 902 342 -47
17:59:19.788420 486.57 1420 3284 14032 760 353 -58
17:59:19.789538 486.58 1336 3332 13836 677 359 -53
17:59:19.792036 486.59 1292 3252 13944 844 293 -32
17:59:19.812594 486.6 1340 3200 13924 1072 305 -89
17:59:19.821341 486.61 1312 3208 13904 1229 262 -99
17:59:19.827826 486.62 1420 3324 14096 1201 263 -91
17:59:19.830563 486.63 1316 3376 14152 1202 261 -89
17:59:19.853805 486.64 1296 3372 14192 1085 300 -50
17:59:19.853962 486.65 1372 3440 14132 920 358 -75
17:59:19.864648 486.66 1396 3544 14144 789 324 -83
17:59:19.888012 486.67 1396 3528 13948 813 302 -75
17:59:19.888170 486.68 1412 3588 14040 679 260 -81
17:59:19.888354 486.69 1288 3464 14088 717 247 -46
17:59:19.910744 486.7 1304 3548 13920 672 205 -47
17:59:19.924688 486.71 1388 3536 13860 744 273 -67
17:59:19.927077 486.72 1272 3488 14060 797 203 -62
17:59:19.978778 486.73 1300 3508 13964 837 241 -61
17:59:19.986625 486.74 1320 3664 13916 867 288 -78
17:59:19.986786 486.75 1252 3728 13740 924 359 -67
17:59:19.986984 486.76 1200 3732 14056 994 366 -65
17:59:19.987252 486.77 1328 3796 14004 1001 307 -125
17:59:19.987510 486.78 1248 3848 14080 1127 663 -119
17:59:19.999055 486.79 1248 3800 13676 511 388 -44
17:59:20.024088 486.8 1348 3684 13580 270 332 -47
17:59:20.024189 486.81 1376 3744 13956 740 370 -130
17:59:20.024568 486.82 1256 3824 14052 970 303 -132
17:59:20.045177 486.83 1344 3872 13968 757 261 -87
17:59:20.055327 486.84 1340 3840 13992 467 233 -49
17:59:20.058618 486.85 1308 3804 13980 509 226 -27
17:59:20.059711 486.86 1244 3940 13884 524 228 -36
17:59:20.085057 486.87 1288 3876 13976 529 217 -48
17:59:20.090233 486.88 1380 3896 13960 572 259 -72
17:59:20.090403 486.89 1208 3972 13976 593 297 -59
17:59:20.119859 486.9 1396 4072 14048 588 279 -46
17:59:20.128014 486.91 1240 4004 13944 511 315 -58
17:59:20.144961 486.92 1212 4004 13932 385 359 -59
17:59:20.155117 486.93 1216 3932 13832 345 311 -15
17:59:20.155236 486.94 1312 3900 14044 422 345 -75
17:59:20.155302 486.95 1252 3836 14048 430 354 -55
17:59:20.182789 486.96 1300 4020 13820 320 283 -41
17:59:20.192288 486.97 1296 3940 13792 306 261 -38
17:59:20.192435 486.98 1280 4012 13928 364 303 -53
17:59:20.199957 486.99 1372 3944 13972 414 330 -67
17:59:20.248794 487.0 1296 4024 13972 403 299 -68
17:59:20.259143 487.01 1276 4036 13944 358 303 -49
17:59:20.259486 487.02 1204 4172 13988 277 327 -61
17:59:20.259761 487.03 1228 4024 13804 245 305 -37
17:59:20.260062 487.04 1224 4064 13888 223 298 7
17:59:20.266104 487.05 1236 4188 13920 256 299 -57
17:59:20.287524 487.06 1184 4180 13948 273 309 -64
17:59:20.287646 487.07 1144 4220 13948 194 302 -45
17:59:20.287729 487.08 1284 4136 13852 191 328 -72
17:59:20.300016 487.09 1236 4140 13940 179 316 -43
17:59:20.323139 487.1 1216 4084 13880 132 300 -41
17:59:20.323259 487.11 1228 4180 13936 113 308 -51
17:59:20.323342 487.12 1280 4200 13816 32 281 -27
17:59:20.323420 487.13 1220 4072 13860 44 274 -44
17:59:20.344044 487.14 1224 4136 13828 22 274 -34
17:59:20.357773 487.15 1132 4064 13884 8 269 -24
17:59:20.358062 487.16 1244 4096 13784 14 279 -48
17:59:20.374951 487.17 1296 4180 13880 16 300 -54
17:59:20.389291 487.18 1344 4084 13896 -31 350 -44
17:59:20.389604 487.19 1300 4188 13976 -39 293 -24
17:59:20.394473 487.2 1216 4204 13908 -82 318 -47
17:59:20.419550 487.21 1304 4156 13896 -135 308 -33
17:59:20.425573 487.22 1280 4196 13932 -208 258 -19
17:59:20.433798 487.23 1172 4164 13832 -245 243 -25
17:59:20.454751 487.24 1180 4240 14132 -259 232 -7
17:59:20.485847 487.25 1216 4064 13880 -264 261 -24
17:59:20.491845 487.26 1268 4124 13936 -310 199 -12
17:59:20.491973 487.27 1236 4112 13784 -290 266 -26
17:59:20.492786 487.28 1204 4124 13952 -344 217 -17
17:59:20.494028 487.29 1140 4064 13788 -365 285 -3
17:59:20.520430 487.3 1244 4144 14064 -340 315 1
17:59:20.527069 487.31 1240 4108 13708 -390 304 -10
17:59:20.527220 487.32 1160 4000 13956 -478 264 -15
17:59:20.584533 487.33 1216 4184 13920 -512 220 -16
17:59:20.592358 487.34 1180 4100 13960 -535 229 -2
17:59:20.592537 487.35 1168 4172 13788 -635 213 8
17:59:20.592741 487.36 1300 4108 14044 -654 229 26
17:59:20.592928 487.37 1228 4104 13928 -719 222 70
17:59:20.601989 487.38 1228 4144 13892 -800 255 25
17:59:20.623323 487.39 1204 4176 13960 -873 252 18
17:59:20.623463 487.4 1256 4064 13684 -919 234 14
17:59:20.623561 487.41 1168 4036 13884 -1018 224 38
17:59:20.636517 487.42 1136 4020 13832 -1089 222 58
17:59:20.657325 487.43 1168 3984 13888 -1136 147 25
17:59:20.712209 487.44 1192 3996 13900 -1221 176 53
17:59:20.725702 487.45 1240 3980 13964 -1287 185 88
17:59:20.726060 487.46 1196 3928 13968 -1362 200 82
17:59:20.726325 487.47 1252 3960 13852 -1550 163 111
17:59:20.726577 487.48 1100 3896 13892 -1714 39 114
17:59:20.726826 487.49 1184 3740 13940 -1789 10 122
17:59:20.727124 487.5 1156 3772 13744 -1657 26 117
17:59:20.727373 487.51 1244 3676 14092 -1415 148 95
17:59:20.727619 487.52 1232 3728 14196 -1187 251 48
17:59:20.731698 487.53 1216 3688 14144 -1245 201 64
17:59:20.777190 487.54 1172 3676 13988 -1353 171 101
17:59:20.793136 487.55 1128 3608 13684 -1467 106 120
17:59:20.793282 487.56 1232 3576 13848 -1401 -30 107
17:59:20.797902 487.57 1140 3512 14268 -1300 19 143
17:59:20.799380 487.58 1068 3640 13888 -1778 263 204
17:59:20.800379 487.59 1304 3516 13524 -2368 -140 222
17:59:20.816486 487.6 1348 3396 14592 -1269 286 77
17:59:20.824765 487.61 1256 3652 14192 -731 109 71
17:59:20.829054 487.62 1252 3412 13724 -1996 -348 198
17:59:20.850525 487.63 1376 3204 14136 -1363 171 122
17:59:20.858032 487.64 1136 3288 13468 -2036 -337 301
17:59:20.858234 487.65 1376 3028 13556 -2077 -319 274
17:59:20.866972 487.66 1440 3132 14096 -914 -91 162
17:59:20.877822 487.67 1308 3316 14328 -497 -117 83
17:59:20.895912 487.68 1268 3356 14704 -823 -104 97
17:59:20.896545 487.69 1164 3320 14296 -1101 11 117
17:59:20.913748 487.7 1192 3316 14260 -1236 -15 139
17:59:20.926255 487.71 1344 3316 14116 -1365 -26 157
17:59:20.936245 487.72 1360 3168 14160 -1464 43 163
17:59:20.937721 487.73 1420 3088 14080 -1550 93 160
17:59:20.957654 487.74 1356 3036 13884 -1709 94 118
17:59:20.978083 487.75 1272 2892 13724 -1598 67 105
17:59:20.995677 487.76 1312 2904 13896 -1309 -11 80
17:59:20.995878 487.77 1396 2904 14060 -920 73 71
17:59:20.996028 487.78 1268 2868 14248 -810 54 59
17:59:21.014634 487.79 1392 2880 14308 -800 69 36
17:59:21.030046 487.8 1376 2944 14192 -841 88 57
17:59:21.034901 487.81 1368 2940 14048 -973 136 62
17:59:21.035495 487.82 1408 2920 14004 -1164 112 82
17:59:21.048850 487.83 1400 2884 14136 -1253 35 93
17:59:21.063279 487.84 1420 2932 14140 -1306 42 83
17:59:21.081255 487.85 1452 2840 14128 -1325 -18 108
17:59:21.092080 487.86 1476 2732 14120 -1301 9 82
17:59:21.092247 487.87 1432 2748 14112 -1219 61 64
17:59:21.092450 487.88 1416 2780 14060 -1206 85 45
17:59:21.119338 487.89 1392 2740 13956 -1111 88 49
17:59:21.128788 487.9 1368 2780 14232 -931 111 38
17:59:21.128932 487.91 1332 2796 14152 -824 167 10
17:59:21.129039 487.92 1240 2724 14416 -720 175 31
17:59:21.137270 487.93 1392 2864 14168 -875 189 -2
17:59:21.161909 487.94 1344 2600 14404 -762 340 -39
17:59:21.169000 487.95 1316 2756 13948 -1028 232 52
17:59:21.170577 487.96 1332 2632 14020 -1552 79 69
17:59:21.182168 487.97 1332 2476 13888 -1440 -45 29
17:59:21.198078 487.98 1340 2516 14276 -838 -37 -49
17:59:21.204293 487.99 1500 2644 14296 -661 -19 -7
17:59:21.230817 488.0 1476 2660 14212 -1010 17 14
17:59:21.231122 488.01 1364 2512 14192 -1128 23 42
17:59:21.234021 488.02 1360 2532 14264 -1085 8 16
17:59:21.249213 488.03 1580 2532 14168 -1151 -28 -6
17:59:21.269547 488.04 1468 2556 14204 -1196 35 -1
17:59:21.269806 488.05 1456 2536 14308 -1172 123 -56
17:59:21.274087 488.06 1500 2388 14292 -1157 71 -45
17:59:21.287474 488.07 1492 2316 14228 -1149 92 -25
17:59:21.295471 488.08 1480 2268 14196 -1168 21 -2
17:59:21.309601 488.09 1332 2376 14168 -1235 154 20
17:59:21.340240 488.1 1424 2288 14216 -1184 108 -14
17:59:21.350067 488.11 1440 2288 14248 -1118 72 -26
17:59:21.350328 488.12 1520 2168 14152 -1083 -38 27
17:59:21.375231 488.13 1496 2220 14184 -1015 -41 10
17:59:21.381104 488.14 1408 2120 14332 -920 24 5
17:59:21.381273 488.15 1560 2156 14252 -806 54 -5
17:59:21.385630 488.16 1372 2164 14124 -761 55 3
17:59:21.444643 488.17 1472 2212 14104 -801 1 15
17:59:21.445916 488.18 1512 2180 14140 -879 83 43
17:59:21.446031 488.19 1508 2152 14056 -865 83 46
17:59:21.467087 488.2 1476 2128 14148 -796 113 22
17:59:21.503593 488.21 1552 2168 14196 -758 127 14
17:59:21.512766 488.22 1476 2096 14192 -661 136 8
17:59:21.512909 488.23 1500 2068 14264 -629 86 22
17:59:21.579194 488.24 1596 2096 14160 -466 106 31
17:59:21.582090 488.25 1540 2064 14268 -390 126 12
17:59:21.582321 488.26 1560 1992 14084 -252 157 14
17:59:21.583180 488.27 1540 2040 14256 -134 155 41
17:59:21.587556 488.28 1452 2000 14196 -11 195 29
17:59:21.588566 488.29 1516 2064 14128 109 211 20
17:59:21.589431 488.3 1496 2108 14088 303 263 7
17:59:21.592441 488.31 1496 2068 14088 360 308 -12
17:59:21.614582 488.32 1548 1972 14300 495 283 -29
17:59:21.614753 488.33 1600 2056 14008 564 313 -18
17:59:21.615088 488.34 1484 2156 14040 610 291 -24
17:59:21.615446 488.35 1488 2112 14236 827 315 -31
17:59:21.615800 488.36 1408 2100 14312 914 353 -31
17:59:21.616145 488.37 1512 2256 14240 950 395 -56
17:59:21.616493 488.38 1404 2168 14128 1003 366 -51
17:59:21.624327 488.39 1524 2240 14068 969 341 -37
17:59:21.652357 488.4 1404 2220 14280 1061 403 -36
17:59:21.653618 488.41 1452 2388 14296 1194 404 -67
17:59:21.654748 488.42 1476 2252 14080 1168 408 -49
17:59:21.686746 488.43 1496 2340 14180 1074 408 -35
17:59:21.689260 488.44 1508 2344 14108 1160 394 -22
17:59:21.708182 488.45 1552 2428 14096 1246 411 -45
17:59:21.715706 488.46 1480 2508 14156 1269 391 -71
17:59:21.732695 488.47 1420 2444 14144 1361 438 -73
17:59:21.746992 488.48 1476 2532 14080 1438 520 -62
17:59:21.747463 488.49 1516 2612 14320 1379 489 -71
17:59:21.747879 488.5 1392 2520 14208 1353 520 -81
17:59:21.748282 488.51 1524 2640 14052 1331 442 -98
17:59:21.768726 488.52 1464 2684 14264 1360 505 -70
17:59:21.779210 488.53 1384 2704 14324 1341 514 -86
17:59:21.781607 488.54 1332 2688 14188 1317 465 -82
17:59:21.789484 488.55 1432 2780 14220 1345 480 -67
17:59:21.806506 488.56 1348 2832 14088 1226 463 -89
17:59:21.813097 488.57 1436 2932 14128 1175 411 -89
17:59:21.819700 488.58 1476 2716 13960 1136 377 -65
17:59:21.838129 488.59 1388 2840 13980 1305 473 -84
17:59:21.845905 488.6 1392 2944 14240 1588 508 -126
17:59:21.849099 488.61 1404 3040 14284 1717 569 -125
17:59:21.866218 488.62 1344 3108 14280 1730 541 -124
17:59:21.883802 488.63 1328 2980 14220 1561 527 -162
17:59:21.908138 488.64 1292 3084 13996 1284 477 -147
17:59:21.914345 488.65 1292 3092 14152 1394 371 -92
17:59:21.914462 488.66 1304 3196 14192 1441 396 -104
17:59:21.925216 488.67 1292 3200 14116 1165 534 -27
17:59:21.946387 488.68 1176 3180 13568 199 324 -2
17:59:21.946552 488.69 1544 3132 14448 844 436 -96
17:59:21.947621 488.7 1368 3208 14428 1968 505 -203
17:59:21.973314 488.71 1256 3444 13852 823 103 -45
17:59:21.981227 488.72 1388 3288 14464 957 504 -134
17:59:21.986062 488.73 1040 3372 13712 590 261 -1
17:59:21.987282 488.74 1276 3264 13432 -227 -51 90
17:59:22.006392 488.75 1372 3060 13840 667 203 -3
17:59:22.016392 488.76 1372 3216 13984 1316 87 -73
17:59:22.024164 488.77 1412 3348 14392 1624 31 -110
17:59:22.025914 488.78 1348 3440 14220 1478 109 -96
17:59:22.069654 488.79 1328 3544 14256 1360 229 -60
17:59:22.082695 488.8 1120 3616 14080 1252 267 -84
17:59:22.082849 488.81 1280 3708 14200 1128 247 -67
17:59:22.087212 488.82 1360 3652 14112 974 374 -72
17:59:22.088383 488.83 1164 3640 13860 854 440 -68
17:59:22.089740 488.84 1204 3560 13876 790 472 -80
17:59:22.125535 488.85 1372 3576 13896 895 393 -84
17:59:22.126297 488.86 1364 3604 13736 1074 319 -127
17:59:22.128164 488.87 1244 3580 14020 1094 308 -103
17:59:22.150434 488.88 1440 3752 14104 1158 271 -111
17:59:22.150571 488.89 1236 3760 13988 1007 281 -93
17:59:22.179819 488.9 1368 3740 14044 877 312 -66
17:59:22.215987 488.91 1296 3780 14012 763 328 -85
17:59:22.218573 488.92 1332 3736 13968 657 341 -66
17:59:22.218822 488.93 1236 3864 13912 610 344 -54
17:59:22.221139 488.94 1260 3640 14032 514 314 -61
17:59:22.223850 488.95 1212 3812 13916 520 272 -79
17:59:22.224945 488.96 1052 3820 13968 490 308 -80
17:59:22.226090 488.97 1228 3876 13988 507 280 -56
17:59:22.241696 488.98 1352 3880 14076 491 312 -53
17:59:22.248615 488.99 1324 3836 13968 553 329 -69
17:59:22.256324 489.0 1268 3972 13908 610 375 -64
17:59:22.257373 489.01 1208 3968 13972 668 347 -103
17:59:22.278116 489.02 1232 4056 13848 683 278 -98
17:59:22.343653 489.03 1236 3956 14332 864 505 -119
17:59:22.348841 489.04 1168 4052 13860 732 566 -100
17:59:22.348937 489.05 1184 4128 13536 130 355 -22
17:59:22.369203 489.06 1280 3908 13736 80 327 -25
17:59:22.386823 489.07 1160 3960 14032 535 369 -102
17:59:22.386998 489.08 1092 4024 13992 645 301 -98
17:59:22.447574 489.09 1220 3984 13848 414 272 -66
17:59:22.448694 489.1 1268 4064 13968 255 241 -22
17:59:22.449801 489.11 1164 4048 13936 326 197 -38
17:59:22.451210 489.12 1204 4080 13888 213 150 -3
17:59:22.452409 489.13 1308 4172 13868 256 223 -21
17:59:22.455384 489.14 1248 4100 13860 308 234 -47
17:59:22.458011 489.15 1144 4188 14072 429 263 -76
17:59:22.460091 489.16 1184 4180 13916 401 280 -59
17:59:22.460791 489.17 1092 4152 13896 289 303 -62
17:59:22.464168 489.18 1204 4136 13848 187 301 -43
17:59:22.487471 489.19 1148 4136 13948 279 295 -47
17:59:22.487688 489.2 1236 4180 13856 295 296 -33
17:59:22.487958 489.21 1124 4204 13884 198 253 -52
17:59:22.488281 489.22 1160 4208 13840 125 237 -10
17:59:22.495315 489.23 1152 4056 13692 178 307 -51
17:59:22.516814 489.24 1120 4156 13972 205 286 -45
17:59:22.518793 489.25 1100 4204 13952 205 332 -48
17:59:22.520305 489.26 1160 4220 13888 158 283 -51
17:59:22.542733 489.27 1176 4108 13816 148 291 -33
17:59:22.553584 489.28 1196 4160 13764 85 287 -4
17:59:22.556149 489.29 1276 4284 13864 100 282 -18
17:59:22.558404 489.3 1216 4308 13844 103 287 -38
17:59:22.578875 489.31 1144 4284 13896 132 330 7
17:59:22.588318 489.32 1100 4272 13800 62 274 7
17:59:22.591556 489.33 1236 4248 13852 61 265 -30
17:59:22.617040 489.34 1176 4280 13852 165 293 -49
17:59:22.622883 489.35 1152 4184 13908 122 333 -37
17:59:22.645941 489.36 1120 4180 13788 56 261 -45
17:59:22.656912 489.37 1172 4324 13816 31 280 -28
17:59:22.657032 489.38 1204 4312 13780 0 260 -26
17:59:22.657124 489.39 1244 4244 13836 16 267 -38
17:59:22.676582 489.4 1184 4256 13928 24 305 -40
17:59:22.689247 489.41 1068 4244 13744 10 304 -56
17:59:22.745935 489.42 1216 4256 13956 1 314 -16
17:59:22.755431 489.43 1168 4200 13736 -6 301 -55
17:59:22.755548 489.44 1152 4244 13864 3 285 -14
17:59:22.755641 489.45 1184 4208 13864 8 293 -58
17:59:22.755730 489.46 1064 4228 13816 -13 268 -51
17:59:22.774562 489.47 1084 4232 13784 -45 292 -19
17:59:22.783377 489.48 1192 4328 13944 -120 205 -43
17:59:22.783801 489.49 1180 4372 14016 -129 250 -20
17:59:22.784169 489.5 1152 4320 13860 -146 242 21
17:59:22.870263 489.51 1164 4252 13816 -158 266 -2
17:59:22.887349 489.52 1116 4208 13816 -162 251 -25
17:59:22.887702 489.53 1108 4356 13892 -196 283 -11
17:59:22.887967 489.54 1076 4224 13868 -196 258 -21
17:59:22.888940 489.55 1180 4260 13772 -210 265 -13
17:59:22.894627 489.56 1160 4344 13896 -215 265 5
17:59:22.897633 489.57 1216 4240 13888 -212 218 -16
17:59:22.918504 489.58 1180 4288 13864 -226 245 6
17:59:22.918643 489.59 1240 4280 13776 -197 241 3
17:59:22.918890 489.6 1144 4304 13840 -236 225 -12
17:59:22.919123 489.61 1172 4324 13728 -230 260 -11
17:59:22.919346 489.62 1156 4256 13864 -190 259 -39
17:59:22.919570 489.63 1132 4236 13764 -232 272 2
17:59:22.919749 489.64 1096 4204 13920 -241 268 -3
17:59:22.932519 489.65 1008 4188 13884 -242 279 -18
17:59:22.951149 489.66 1100 4280 13864 -224 255 12
17:59:22.957424 489.67 1200 4308 13752 -233 228 -9
17:59:22.958542 489.68 1128 4220 13720 -279 228 2
17:59:22.959648 489.69 1208 4228 13924 -294 225 -15
17:59:22.976684 489.7 1104 4208 13884 -300 269 0
17:59:22.988746 489.71 1156 4268 13880 -335 292 -39
17:59:23.019618 489.72 1208 4380 13752 -386 268 -29
17:59:23.020925 489.73 1096 4204 13864 -531 224 17
17:59:23.022041 489.74 1100 4212 13768 -673 157 30
17:59:23.024481 489.75 1036 4168 13656 -743 130 42
17:59:23.081995 489.76 1184 4228 13884 -661 234 15
17:59:23.085986 489.77 1108 4232 14080 -498 318 -38
17:59:23.086246 489.78 1156 4208 13988 -524 318 -47
17:59:23.086917 489.79 1020 4160 13988 -722 304 -31
17:59:23.088131 489.8 1052 4200 13836 -888 195 14
17:59:23.100095 489.81 1068 4184 13932 -1038 118 35
17:59:23.119312 489.82 1152 4028 13864 -953 12 75
17:59:23.119479 489.83 1056 4028 14004 -1054 57 116
17:59:23.119670 489.84 1088 4132 13428 -1678 141 185
17:59:23.145870 489.85 1340 3928 13872 -1615 5 136
17:59:23.155441 489.86 1256 4116 14584 -430 414 8
17:59:23.159173 489.87 952 4208 14092 -632 39 52
17:59:23.160428 489.88 1104 3972 13892 -1441 -157 118
17:59:23.178526 489.89 1148 3944 14068 -1040 219 76
17:59:23.187057 489.9 1112 3892 13356 -1927 -147 234
17:59:23.193667 489.91 1272 3612 13408 -2049 -341 260
17:59:23.196432 489.92 1276 3744 13900 -1126 -220 210
17:59:23.210854 489.93 1204 3840 14132 -811 -255 126
17:59:23.220484 489.94 1136 3984 14296 -870 -207 123
17:59:23.231349 489.95 1120 3960 14284 -1009 -168 141
17:59:23.254614 489.96 1144 3896 13884 -1141 -32 142
17:59:23.280667 489.97 1204 3796 14104 -1147 -6 140
17:59:23.287850 489.98 1256 3896 14028 -1161 5 131
17:59:23.288006 489.99 1264 3824 13928 -1292 157 111
17:59:23.295549 490.0 1188 3692 13836 -1355 148 112
17:59:23.296464 490.01 1164 3552 13824 -1382 91 108
17:59:23.297531 490.02 1196 3544 13868 -1185 25 116
17:59:23.314493 490.03 1252 3528 13904 -1021 23 118
17:59:23.322975 490.04 1296 3548 14084 -976 88 83
17:59:23.326384 490.05 1276 3492 14104 -982 78 77
17:59:23.341307 490.06 1224 3548 14120 -1089 53 116
17:59:23.357124 490.07 1216 3524 14000 -1209 114 112
17:59:23.377509 490.08 1240 3512 14068 -1286 145 138
17:59:23.391921 490.09 1268 3580 13976 -1351 91 148
17:59:23.392180 490.1 1252 3476 14068 -1327 37 146
17:59:23.396828 490.11 1328 3412 13848 -1392 36 110
17:59:23.400048 490.12 1260 3488 14032 -1388 46 142
17:59:23.421455 490.13 1292 3328 14040 -1249 133 85
17:59:23.424832 490.14 1284 3344 14172 -1314 101 98
17:59:23.446258 490.15 1280 3264 14096 -1288 99 101
17:59:23.456027 490.16 1184 3284 14052 -1226 71 116
17:59:23.456208 490.17 1208 3236 14024 -1111 115 79
17:59:23.456419 490.18 1276 3404 14016 -932 157 86
17:59:23.481587 490.19 1396 3276 14032 -948 182 47
17:59:23.497601 490.2 1232 3140 14256 -742 373 -8
17:59:23.498619 490.21 1324 3264 14008 -1067 286 89
17:59:23.500556 490.22 1244 3140 13720 -1697 53 161
17:59:23.525347 490.23 1340 3004 13936 -1474 -28 109
17:59:23.525564 490.24 1364 3164 14072 -798 15 29
17:59:23.529054 490.25 1508 3060 14104 -827 3 38
17:59:23.546283 490.26 1296 3084 14124 -1051 12 73
17:59:23.558946 490.27 1292 3092 14124 -1191 1 115
17:59:23.559245 490.28 1376 3120 14028 -1149 -86 99
17:59:23.566720 490.29 1228 3052 14164 -1167 -41 105
17:59:23.583146 490.3 1472 3008 14084 -1091 -29 51
17:59:23.590264 490.31 1312 3000 14320 -1024 39 50
17:59:23.613656 490.32 1328 3080 14172 -1152 122 5
17:59:23.622457 490.33 1308 2972 14176 -1130 113 31
17:59:23.628806 490.34 1396 2948 14200 -1225 86 69
17:59:23.630683 490.35 1416 2908 13992 -1381 64 70
17:59:23.651668 490.36 1268 2792 14156 -1500 -5 79
17:59:23.657703 490.37 1280 2808 14160 -1382 -41 70
17:59:23.664702 490.38 1404 2692 14152 -1287 -38 68
17:59:23.692405 490.39 1356 2868 14168 -1270 -51 39
17:59:23.693485 490.4 1388 2732 14268 -1361 -20 72
17:59:23.694732 490.41 1376 2788 14080 -1486 9 43
17:59:23.711218 490.42 1296 2676 14260 -1356 46 25
17:59:23.723407 490.43 1344 2676 14120 -1057 74 22
17:59:23.724277 490.44 1376 2688 14116 -1246 -117 83
17:59:23.731874 490.45 1372 2668 14060 -1217 71 42
17:59:23.749350 490.46 1320 2580 14068 -1238 66 38
17:59:23.757211 490.47 1380 2708 14164 -1260 45 35
17:59:23.761530 490.48 1412 2604 14096 -1319 38 61
17:59:23.782966 490.49 1428 2640 13996 -1274 -5 39
17:59:23.793630 490.5 1468 2492 14204 -1227 -6 50
17:59:23.794784 490.51 1372 2496 14176 -1194 51 24
17:59:23.799219 490.52 1304 2408 14348 -1090 12 34
17:59:23.811136 490.53 1348 2372 14100 -1091 31 64
17:59:23.831511 490.54 1416 2372 14296 -1086 30 18
17:59:23.833263 490.55 1380 2396 14152 -987 60 16
17:59:23.845397 490.56 1392 2328 14224 -1008 148 -9
17:59:23.879385 490.57 1372 2388 14180 -1017 154 -19
17:59:23.896966 490.58 1256 2376 14180 -1041 52 -18
17:59:23.897276 490.59 1440 2300 14140 -1101 56 36
17:59:23.897616 490.6 1516 2276 14148 -1044 73 3
17:59:23.897987 490.61 1528 2400 14284 -1057 71 -3
17:59:23.904229 490.62 1456 2172 14244 -1101 52 -11
17:59:23.932610 490.63 1568 2240 14276 -1078 73 0
17:59:23.933509 490.64 1332 2248 14100 -1100 35 -8
17:59:23.934544 490.65 1444 2156 14144 -1132 25 -18
17:59:23.950661 490.66 1436 2096 14344 -1060 33 29
17:59:23.959367 490.67 1460 2120 14352 -985 3 26
17:59:23.964073 490.68 1440 2144 14224 -914 72 -1
17:59:23.981178 490.69 1500 2152 14164 -936 -17 32
17:59:23.995102 490.7 1600 2080 14384 -852 17 25
17:59:23.995251 490.71 1588 2100 14200 -783 83 30
17:59:24.011260 490.72 1572 2068 14212 -833 125 -5
17:59:24.026642 490.73 1340 2080 14164 -780 113 -11
