18:02:00.007087 638.84 1096 3980 13936 181 274 -17
18:02:00.008229 638.85 976 3888 14056 319 355 -27
18:02:00.009352 638.86 908 4068 13840 178 315 -55
18:02:00.010600 638.87 1000 3940 13932 100 318 -24
18:02:00.013228 638.88 1024 4016 14076 212 354 -45
18:02:00.018690 638.89 964 4032 13864 199 324 -44
18:02:00.021549 638.9 1016 3980 13952 143 296 -34
18:02:00.053082 638.91 1032 4168 14004 101 288 -3
18:02:00.053217 638.92 1068 4024 13868 71 324 -28
18:02:00.053312 638.93 992 4000 13844 88 305 -3
18:02:00.053807 638.94 1004 4052 13992 163 330 -19
18:02:00.054333 638.95 920 4012 13780 210 358 -40
18:02:00.054970 638.96 892 4220 13900 154 302 -18
18:02:00.088448 638.97 1020 4084 13860 170 340 -29
18:02:00.096388 638.98 1036 4136 13860 168 299 -23
18:02:00.096514 638.99 972 4084 14012 141 338 -13
18:02:00.096698 639.0 1040 4156 13840 104 284 -29
18:02:00.096958 639.01 960 4076 13912 89 294 -11
18:02:00.104137 639.02 972 4016 13900 98 310 -33
18:02:00.129590 639.03 1044 4124 13876 153 326 -34
18:02:00.129906 639.04 1028 4156 13908 128 322 -18
18:02:00.130258 639.05 992 4080 13848 137 373 -49
18:02:00.144832 639.06 1084 4124 13976 106 338 -22
18:02:00.161996 639.07 904 4176 13964 120 290 -43
18:02:00.163750 639.08 1072 4312 13776 83 339 -12
18:02:00.164990 639.09 800 4228 13916 103 294 -24
18:02:00.166486 639.1 980 4156 13956 68 283 -7
18:02:00.182876 639.11 1020 4220 13864 -18 267 -50
18:02:00.197958 639.12 1012 4180 13824 52 276 -12
18:02:00.199539 639.13 976 4184 13924 54 309 -34
18:02:00.221378 639.14 1040 4208 13908 38 277 -29
18:02:00.224675 639.15 936 4168 14016 21 309 -41
18:02:00.235990 639.16 976 4228 13828 9 303 -26
18:02:00.238538 639.17 892 4240 13764 -27 307 -10
18:02:00.261002 639.18 976 4056 13876 -23 321 -6
18:02:00.286468 639.19 948 4136 13908 -48 323 -9
18:02:00.299005 639.2 1012 4196 13920 -39 287 -7
18:02:00.299150 639.21 852 4288 13864 -77 296 -1
18:02:00.299278 639.22 912 4192 13860 -48 284 -4
18:02:00.299407 639.23 920 4176 13932 -25 291 -30
18:02:00.317990 639.24 952 4248 13880 -35 264 -26
18:02:00.328896 639.25 892 4160 13868 -48 266 -20
18:02:00.332653 639.26 832 4228 13828 -45 284 -30
18:02:00.335353 639.27 996 4212 14004 -72 267 -11
18:02:00.357073 639.28 944 4260 13976 -69 268 7
18:02:00.367721 639.29 928 4156 13996 -81 281 14
18:02:00.368063 639.3 892 4244 13888 -105 283 16
18:02:00.386046 639.31 860 4196 13876 -115 260 -8
18:02:00.399037 639.32 1020 4196 13804 -114 283 -7
18:02:00.419415 639.33 892 4172 13988 -115 248 -11
18:02:00.423423 639.34 920 4156 13996 -137 243 16
18:02:00.423565 639.35 912 4220 13980 -116 252 -16
18:02:00.438087 639.36 976 4196 13860 -113 270 8
18:02:00.446609 639.37 924 4336 13896 -96 298 -19
18:02:00.450497 639.38 960 4336 13972 -158 273 -23
18:02:00.474469 639.39 904 4160 13864 -233 269 7
18:02:00.503921 639.4 944 4256 13836 -334 209 -1
18:02:00.509942 639.41 908 4176 13660 -402 162 18
18:02:00.510084 639.42 968 4180 13896 -386 189 37
18:02:00.510199 639.43 1052 4192 13988 -118 318 -28
18:02:00.541248 639.44 992 4216 14000 -16 410 -53
18:02:00.548926 639.45 804 4240 14016 -189 296 -26
18:02:00.549056 639.46 808 4240 13888 -316 216 -17
18:02:00.549177 639.47 976 4236 13792 -483 170 29
18:02:00.549293 639.48 968 4092 14032 -377 139 30
18:02:00.616882 639.49 896 4284 14148 -306 94 26
18:02:00.644972 639.5 896 4228 13924 -597 86 121
18:02:00.646196 639.51 816 4100 13396 -1244 -83 177
18:02:00.647359 639.52 1236 4044 14140 -424 334 18
18:02:00.648549 639.53 1004 4352 14276 424 424 -88
18:02:00.655150 639.54 888 4188 14004 -454 -130 66
18:02:00.681098 639.55 1012 4140 14052 -675 -33 89
18:02:00.681298 639.56 912 4240 13808 -703 165 98
18:02:00.681446 639.57 932 3944 13540 -1288 -383 216
18:02:00.681583 639.58 992 3788 13644 -796 -135 154
18:02:00.681717 639.59 916 4024 13992 -287 14 41
18:02:00.681849 639.6 984 4180 14184 -172 -132 31
18:02:00.766172 639.61 1108 4176 13988 -291 -104 79
18:02:00.777001 639.62 940 4160 14108 -491 11 95
18:02:00.777252 639.63 908 4128 13976 -521 17 143
18:02:00.777611 639.64 976 4148 14024 -787 -25 148
18:02:00.777975 639.65 976 4108 14104 -992 35 123
18:02:00.778114 639.66 996 4108 13864 -1197 -63 120
18:02:00.804321 639.67 928 3988 14024 -1277 -76 157
18:02:00.814304 639.68 1028 3808 13964 -1149 -86 152
18:02:00.821395 639.69 1172 3864 13892 -1166 -98 144
18:02:00.838488 639.7 1092 3852 14008 -1194 -105 151
18:02:00.846766 639.71 1088 3904 14056 -1215 -106 168
18:02:00.846995 639.72 1056 3792 14076 -1440 -168 194
18:02:00.847206 639.73 1144 3864 13972 -1532 -156 185
18:02:00.847424 639.74 1040 3852 13920 -1560 -119 189
18:02:00.854115 639.75 988 3760 13968 -1527 -95 156
18:02:00.855846 639.76 1032 3708 14080 -1578 -133 183
18:02:00.856794 639.77 1148 3780 13924 -1723 -155 189
18:02:00.876394 639.78 1064 3664 13820 -1787 -205 204
18:02:00.881669 639.79 1220 3560 13988 -1727 -174 162
18:02:00.881806 639.8 1084 3548 13916 -1651 -166 170
18:02:00.885500 639.81 1120 3652 13976 -1587 -156 145
18:02:00.934212 639.82 1056 3548 14104 -1441 -59 138
18:02:00.944395 639.83 1072 3592 14044 -1227 -1 101
18:02:00.944744 639.84 1136 3552 14168 -1158 14 106
18:02:00.945120 639.85 1180 3524 14256 -1108 66 106
18:02:00.945460 639.86 1224 3452 14124 -1237 29 75
18:02:00.946449 639.87 1184 3480 14304 -1050 278 19
18:02:00.953311 639.88 1124 3504 13972 -1440 41 140
18:02:00.971645 639.89 1096 3252 13732 -1952 -174 189
18:02:01.003992 639.9 1244 3332 14120 -1642 -179 100
18:02:01.012654 639.91 1168 3256 14108 -1144 -79 41
18:02:01.012789 639.92 1188 3300 14156 -1147 -106 92
18:02:01.013264 639.93 1256 3240 13992 -1256 -88 115
18:02:01.051865 639.94 1196 3276 14032 -1303 -130 109
18:02:01.073849 639.95 1260 3220 14048 -1243 -54 55
18:02:01.083223 639.96 1188 3352 14220 -1293 -77 87
18:02:01.083353 639.97 1388 3300 14304 -1237 -32 47
18:02:01.083461 639.98 1380 3220 13960 -1308 -45 72
18:02:01.093975 639.99 1340 3044 14244 -1252 5 54
18:02:01.123011 640.0 1316 2972 14136 -1219 -57 53
18:02:01.123207 640.01 1200 3028 14100 -1309 -37 87
18:02:01.123336 640.02 1232 2952 14164 -1447 -55 87
18:02:01.156290 640.03 1332 2928 14304 -1351 -67 98
18:02:01.163777 640.04 1360 2936 14180 -1305 -81 84
18:02:01.163906 640.05 1208 2944 14212 -1384 -127 74
18:02:01.163998 640.06 1340 2876 14116 -1306 -113 80
18:02:01.165906 640.07 1336 2848 14284 -1181 -84 57
18:02:01.168401 640.08 1244 2860 14160 -1095 -47 48
18:02:01.223402 640.09 1264 2916 14224 -1077 -55 42
18:02:01.231082 640.1 1316 2848 14044 -1113 -7 87
18:02:01.231201 640.11 1340 2824 14224 -1255 4 71
18:02:01.231285 640.12 1424 2676 14252 -1203 41 58
18:02:01.231366 640.13 1424 2796 14140 -1127 -40 43
18:02:01.231622 640.14 1288 2696 14100 -1133 -16 52
18:02:01.297134 640.15 1344 2668 14172 -1097 1 66
18:02:01.299120 640.16 1280 2700 14344 -999 -17 55
18:02:01.299283 640.17 1400 2676 14276 -944 30 44
18:02:01.300208 640.18 1352 2708 14076 -928 84 33
18:02:01.302331 640.19 1300 2564 14320 -888 38 42
18:02:01.306348 640.2 1332 2604 14336 -846 94 58
18:02:01.307142 640.21 1192 2588 14140 -917 62 14
18:02:01.323147 640.22 1448 2576 14256 -951 57 22
18:02:01.333743 640.23 1352 2528 14164 -958 77 29
18:02:01.353587 640.24 1428 2552 14196 -936 79 -8
18:02:01.362564 640.25 1464 2476 14220 -939 68 18
18:02:01.362705 640.26 1408 2364 14164 -865 91 39
18:02:01.365573 640.27 1348 2528 14156 -872 44 6
18:02:01.386921 640.28 1368 2460 14148 -929 9 28
18:02:01.401857 640.29 1396 2416 14188 -825 41 -2
18:02:01.434851 640.3 1416 2480 14336 -853 66 9
18:02:01.436690 640.31 1400 2404 14208 -877 37 -8
18:02:01.436781 640.32 1412 2416 14192 -837 67 41
18:02:01.439171 640.33 1412 2344 14280 -793 83 -4
18:02:01.441429 640.34 1416 2352 14220 -773 93 33
18:02:01.469716 640.35 1448 2368 14148 -788 64 48
18:02:01.470895 640.36 1336 2376 14300 -781 78 30
18:02:01.471830 640.37 1448 2380 14332 -757 62 37
18:02:01.488330 640.38 1448 2328 14236 -671 44 44
18:02:01.499415 640.39 1384 2292 14244 -635 92 19
18:02:01.529099 640.4 1396 2300 14128 -566 150 21
18:02:01.530540 640.41 1480 2288 14192 -440 140 7
18:02:01.531172 640.42 1376 2476 14168 -464 165 28
18:02:01.540474 640.43 1476 2316 14244 -491 184 17
18:02:01.542109 640.44 1460 2372 14300 -461 168 -14
18:02:01.545823 640.45 1504 2320 14128 -470 159 39
18:02:01.590337 640.46 1396 2284 14076 -398 178 7
18:02:01.599705 640.47 1512 2160 14408 -326 201 10
18:02:01.599866 640.48 1340 2252 14272 -390 181 6
18:02:01.607049 640.49 1352 2324 14176 -435 80 34
18:02:01.626638 640.5 1352 2108 14044 -441 58 58
18:02:01.634483 640.51 1420 2140 14184 -161 213 18
18:02:01.634683 640.52 1412 2176 14320 207 356 -35
18:02:01.654466 640.53 1456 2228 14312 269 344 -73
18:02:01.669446 640.54 1400 2316 14212 122 271 -56
18:02:01.669705 640.55 1372 2180 14052 -23 183 -8
18:02:01.669926 640.56 1432 2160 14020 110 268 0
18:02:01.689635 640.57 1444 2200 14312 406 409 -34
18:02:01.699375 640.58 1428 2268 14352 198 446 7
18:02:01.705353 640.59 1320 2356 13780 -562 282 106
18:02:01.707375 640.6 1572 2140 13984 -528 58 97
18:02:01.731366 640.61 1564 2232 14700 867 570 -64
18:02:01.743050 640.62 1364 2480 14004 491 -68 -19
18:02:01.743230 640.63 1408 2144 14132 381 140 -9
18:02:01.765273 640.64 1500 2456 14288 1024 670 -90
18:02:01.845028 640.65 1308 2416 13632 -28 32 92
18:02:01.850262 640.66 1496 2176 13952 -12 69 120
18:02:01.850364 640.67 1512 2372 14204 957 687 -54
18:02:01.862882 640.68 1464 2488 14600 1223 608 -97
18:02:01.942902 640.69 1372 2388 14636 1204 511 -69
18:02:01.950861 640.7 1368 2524 14312 881 430 -33
18:02:01.951095 640.71 1288 2528 14268 778 455 10
18:02:01.951820 640.72 1324 2688 14240 773 415 12
18:02:01.953055 640.73 1304 2620 14272 628 298 -1
18:02:01.955606 640.74 1400 2564 14180 511 288 12
18:02:01.961564 640.75 1396 2516 14008 355 273 35
18:02:01.987449 640.76 1496 2464 14048 504 319 21
18:02:01.987666 640.77 1448 2436 14020 844 314 -2
18:02:01.987812 640.78 1444 2504 14160 1235 378 -29
18:02:01.987950 640.79 1372 2636 14148 999 459 -75
18:02:01.988083 640.8 1292 2672 14140 942 491 -34
18:02:01.988210 640.81 1416 2720 14104 863 423 -26
18:02:01.988334 640.82 1292 2940 14264 796 416 -33
18:02:01.988459 640.83 1344 2748 14008 836 380 -34
18:02:01.995774 640.84 1364 2780 14132 822 374 -14
18:02:02.024219 640.85 1376 2896 13924 840 463 -36
18:02:02.027161 640.86 1256 2852 14212 990 507 -48
18:02:02.028055 640.87 1296 2892 14208 1125 587 -51
18:02:02.030904 640.88 1228 3104 14132 1240 588 -83
18:02:02.052989 640.89 1216 3004 14184 1316 484 -94
18:02:02.055698 640.9 1240 3020 14424 1437 635 -131
18:02:02.112343 640.91 1192 3088 14192 1453 747 -89
18:02:02.117189 640.92 1244 3012 14080 686 446 10
18:02:02.117363 640.93 1236 2960 14036 793 534 -70
18:02:02.117608 640.94 1336 3204 13996 1059 565 -96
18:02:02.117841 640.95 1256 3132 13856 848 328 -78
18:02:02.144838 640.96 1208 3192 14124 1121 518 -115
18:02:02.156845 640.97 1220 3184 14132 1096 454 -84
18:02:02.156963 640.98 1268 3176 14132 912 377 -60
18:02:02.171455 640.99 1200 3224 14148 869 290 -43
18:02:02.186712 641.0 1144 3212 14080 830 364 -51
18:02:02.187097 641.01 1160 3344 14104 890 388 -78
18:02:02.187395 641.02 1304 3280 14232 965 372 -104
18:02:02.209849 641.03 1260 3336 14156 976 425 -97
18:02:02.219008 641.04 1148 3312 14080 928 429 -104
18:02:02.219366 641.05 1284 3332 14164 844 446 -63
18:02:02.220738 641.06 1132 3288 14112 857 438 -59
18:02:02.242877 641.07 1184 3388 14064 1017 421 -88
18:02:02.278020 641.08 1200 3404 13948 878 406 -61
18:02:02.286182 641.09 1160 3420 13972 858 475 -85
18:02:02.286420 641.1 1116 3348 14116 1013 546 -109
18:02:02.286669 641.11 1168 3608 14080 1055 607 -96
18:02:02.297901 641.12 1040 3660 14084 888 486 -100
18:02:02.318000 641.13 1152 3528 14032 832 422 -97
18:02:02.323852 641.14 1236 3604 14076 723 455 -88
18:02:02.324925 641.15 1196 3584 13952 667 422 -53
18:02:02.326042 641.16 1180 3580 14176 700 444 -54
18:02:02.340998 641.17 1160 3664 14108 800 447 -73
18:02:02.357924 641.18 1192 3684 13940 813 421 -57
18:02:02.359406 641.19 1104 3684 14084 744 433 -33
18:02:02.375533 641.2 1104 3764 13928 774 481 -64
18:02:02.385245 641.21 1184 3780 14140 767 457 -44
18:02:02.385449 641.22 992 3696 13956 730 455 -76
18:02:02.393557 641.23 1120 3740 14020 674 446 -72
18:02:02.411594 641.24 1124 3772 13928 628 396 -39
18:02:02.419918 641.25 1112 3768 14040 619 408 -60
18:02:02.447000 641.26 1104 3756 13936 629 418 -68
18:02:02.455097 641.27 1012 3744 14036 597 431 -75
18:02:02.455297 641.28 1024 3892 14024 633 367 -76
18:02:02.455457 641.29 1128 3828 13868 643 443 -73
18:02:02.478229 641.3 1048 3940 14044 598 412 -68
18:02:02.489803 641.31 1076 3984 13960 591 406 -82
18:02:02.492618 641.32 1040 3880 13992 533 422 -85
18:02:02.495514 641.33 1036 3908 14080 491 418 -67
18:02:02.515924 641.34 932 3832 14052 452 406 -61
18:02:02.521422 641.35 1032 4020 13960 491 371 -42
18:02:02.587508 641.36 916 4004 13920 446 360 -30
18:02:02.588685 641.37 1044 3860 14000 392 367 -38
18:02:02.589922 641.38 988 3900 13900 370 382 -55
18:02:02.591001 641.39 1036 3916 13892 416 364 -39
18:02:02.595130 641.4 996 3936 14036 353 417 -51
18:02:02.599120 641.41 1064 3988 13916 421 407 -66
18:02:02.601591 641.42 996 4092 13996 357 415 -80
18:02:02.619875 641.43 1080 3980 13988 406 457 -91
18:02:02.620138 641.44 1072 4052 14016 383 427 -46
18:02:02.640698 641.45 1016 4084 13860 290 393 -46
18:02:02.656120 641.46 956 3996 13840 195 318 -30
18:02:02.656430 641.47 972 4056 13896 46 266 -11
18:02:02.657868 641.48 1000 4056 13872 140 322 -6
18:02:02.659905 641.49 968 3940 13972 448 495 -59
18:02:02.680662 641.5 1012 4040 14004 544 509 -94
18:02:02.693573 641.51 852 4140 13976 444 453 -85
18:02:02.716287 641.52 924 4116 13760 193 388 -64
18:02:02.720599 641.53 924 4016 13812 93 366 -70
18:02:02.720762 641.54 896 4240 13984 146 332 -31
18:02:02.721097 641.55 868 4120 13892 35 235 25
18:02:02.731258 641.56 736 4224 13436 -721 182 136
18:02:02.776743 641.57 1096 4000 13916 -528 104 60
18:02:02.809101 641.58 1176 4200 14424 762 608 -143
18:02:02.826437 641.59 772 4304 14152 403 178 -72
18:02:02.826725 641.6 872 4100 13712 -295 -79 56
18:02:02.827096 641.61 1020 4156 13728 -174 215 54
18:02:02.827194 641.62 920 4188 13476 -564 15 124
18:02:02.827289 641.63 1056 3864 13584 -362 -71 96
18:02:02.827383 641.64 1204 4032 13792 167 171 39
18:02:02.828005 641.65 1036 4156 13932 460 139 2
18:02:02.853135 641.66 912 4080 14052 554 45 -2
18:02:02.857989 641.67 1004 4208 14024 463 183 13
18:02:02.880416 641.68 924 4192 13972 452 254 4
18:02:02.889888 641.69 872 4272 14016 355 211 1
18:02:02.890057 641.7 896 4360 13968 193 307 17
18:02:02.916920 641.71 892 4224 13908 105 302 -33
18:02:02.923759 641.72 896 4220 13612 43 280 -28
18:02:02.923959 641.73 848 4208 13824 81 258 5
18:02:02.934181 641.74 1032 4136 13820 320 260 10
18:02:02.957693 641.75 1040 4168 13692 351 243 1
18:02:03.011069 641.76 996 4184 13924 363 262 -12
18:02:03.023741 641.77 1064 4164 13996 245 246 3
18:02:03.023973 641.78 976 4224 14068 143 278 -2
18:02:03.024162 641.79 956 4264 13836 108 318 -32
18:02:03.024364 641.8 916 4268 13900 11 313 -6
18:02:03.024533 641.81 1004 4164 13884 -43 314 -21
18:02:03.024692 641.82 904 4308 13928 -100 240 3
18:02:03.024850 641.83 900 4340 13784 -104 233 25
18:02:03.025484 641.84 1012 4312 13760 -127 235 -11
18:02:03.030534 641.85 1008 4356 14004 -135 241 -28
18:02:03.056090 641.86 888 4296 13920 -59 276 -9
18:02:03.070597 641.87 900 4268 14008 -9 304 -10
18:02:03.085380 641.88 992 4344 13808 46 321 -25
18:02:03.093868 641.89 940 4332 13772 109 337 -17
18:02:03.107825 641.9 848 4472 13812 96 346 -28
18:02:03.135079 641.91 1012 4312 13936 64 271 -64
18:02:03.138395 641.92 916 4356 14052 206 517 -45
18:02:03.138537 641.93 920 4316 13404 -318 189 34
18:02:03.148074 641.94 888 4212 13544 -350 237 55
18:02:03.163911 641.95 944 4272 13940 338 457 -77
18:02:03.173151 641.96 848 4232 13956 331 390 -60
18:02:03.173416 641.97 896 4396 13880 157 291 -3
18:02:03.173595 641.98 1052 4344 13860 -12 263 -16
18:02:03.192526 641.99 932 4288 13888 -48 249 16
18:02:03.214074 642.0 960 4360 13928 18 215 -21
18:02:03.261966 642.01 944 4416 13960 -13 150 -8
18:02:03.272621 642.02 1000 4204 13952 -28 216 -1
18:02:03.272852 642.03 892 4468 13920 -31 205 -12
18:02:03.273030 642.04 888 4340 13892 -76 195 12
18:02:03.273197 642.05 928 4344 13932 -131 186 10
18:02:03.273361 642.06 912 4336 13840 -197 169 34
18:02:03.273523 642.07 904 4296 13844 -185 171 34
18:02:03.299800 642.08 920 4380 13876 -115 182 1
18:02:03.309345 642.09 860 4308 13796 -150 170 -16
18:02:03.309541 642.1 824 4216 13864 -310 144 26
18:02:03.310022 642.11 824 4360 13916 -307 231 5
18:02:03.311387 642.12 976 4316 13924 -286 240 23
18:02:03.332827 642.13 920 4316 13852 -380 184 23
18:02:03.467571 642.14 952 4264 13832 -431 165 49
18:02:03.475217 642.15 952 4404 13952 -585 169 48
18:02:03.475464 642.16 840 4492 13808 -686 153 65
18:02:03.475607 642.17 932 4380 13980 -802 132 50
18:02:03.475740 642.18 848 4272 13952 -938 105 50
18:02:03.475887 642.19 1036 4344 13880 -1033 23 121
18:02:03.476048 642.2 844 4248 13940 -1186 46 119
18:02:03.476189 642.21 892 4340 13976 -1285 -10 101
18:02:03.476343 642.22 904 4244 13996 -1368 12 134
18:02:03.476475 642.23 932 4092 13792 -1497 -66 137
18:02:03.476610 642.24 928 4108 13784 -1718 -87 186
18:02:03.476734 642.25 916 3956 14012 -1669 -67 152
18:02:03.477284 642.26 920 4032 14032 -1585 -45 163
18:02:03.480760 642.27 1040 3924 14000 -1702 -66 144
18:02:03.488291 642.28 1116 4040 13920 -1785 -20 156
18:02:03.518392 642.29 1028 3936 13964 -1742 -30 141
18:02:03.518579 642.3 1016 3928 14000 -1848 -100 154
18:02:03.518709 642.31 964 3916 13872 -1965 -90 180
18:02:03.533491 642.32 964 3796 14000 -1969 -155 198
18:02:03.549849 642.33 1124 3752 14056 -2013 -219 178
18:02:03.566031 642.34 1152 3748 14072 -1977 -190 160
18:02:03.569305 642.35 952 3728 14072 -2021 -149 171
18:02:03.589046 642.36 1076 3632 14176 -2067 -185 152
18:02:03.598388 642.37 952 3608 14112 -2217 -177 163
18:02:03.604591 642.38 1064 3600 14048 -2202 -205 164
18:02:03.627455 642.39 1088 3460 14188 -2303 -230 181
18:02:03.647447 642.4 1136 3428 13996 -2376 -301 198
18:02:03.683453 642.41 1080 3420 14088 -2186 -298 185
18:02:03.719016 642.42 1148 3288 13960 -1989 -217 164
18:02:03.728597 642.43 1188 3276 13988 -1910 -213 140
18:02:03.729014 642.44 1156 3200 14108 -1875 -171 119
18:02:03.729944 642.45 1056 3244 14172 -1794 -224 171
18:02:03.731166 642.46 1136 3284 14048 -1777 -137 117
18:02:03.733713 642.47 1264 3232 14304 -1785 -173 115
18:02:03.735231 642.48 1228 3236 14168 -1800 -186 106
18:02:03.796881 642.49 1204 3084 14092 -1736 -152 61
18:02:03.798084 642.5 1168 3108 14148 -1840 -202 121
18:02:03.802325 642.51 1192 3000 14080 -1944 -207 80
18:02:03.816452 642.52 1212 3008 14228 -1911 -253 132
18:02:03.828077 642.53 1300 2904 14076 -1964 -295 149
18:02:03.828554 642.54 1192 2864 14188 -1923 -287 115
18:02:03.828809 642.55 1360 2724 14148 -1781 -170 94
18:02:03.829022 642.56 1304 2780 14196 -1427 -52 48
18:02:03.829226 642.57 1192 2852 14172 -1359 -41 36
18:02:03.829426 642.58 1192 2828 14224 -1473 -150 65
18:02:03.829624 642.59 1300 2792 14148 -1633 -187 87
18:02:03.830823 642.6 1256 2676 14028 -1546 -279 93
18:02:03.831934 642.61 1360 2696 14256 -1245 -89 100
18:02:03.840683 642.62 1216 2656 14496 -1446 32 80
18:02:03.861064 642.63 1216 2816 13936 -2429 -22 127
18:02:03.865162 642.64 1480 2380 13968 -2501 -371 112
18:02:03.866778 642.65 1480 2404 14704 -1050 91 -71
18:02:03.886722 642.66 1216 2656 14072 -999 -404 32
18:02:03.895614 642.67 1332 2388 13980 -1961 -696 129
18:02:03.900618 642.68 1444 2408 14384 -1311 118 13
18:02:03.919756 642.69 1196 2452 13720 -2021 -391 117
18:02:03.929678 642.7 1444 2112 13840 -2067 -483 184
18:02:03.929845 642.71 1548 2160 14396 -1235 25 46
18:02:03.938729 642.72 1528 2360 14708 -610 177 -13
18:02:03.963809 642.73 1300 2480 14708 -842 107 12
18:02:03.965830 642.74 1324 2420 14396 -1069 60 47
18:02:03.985421 642.75 1336 2484 14272 -1378 63 61
18:02:03.998771 642.76 1368 2240 14208 -1526 -9 55
18:02:04.000106 642.77 1464 2332 14276 -1715 -137 81
18:02:04.001327 642.78 1384 2144 14300 -1798 -103 66
18:02:04.023159 642.79 1436 2164 14072 -1890 -132 84
18:02:04.027832 642.8 1552 2000 13900 -1852 -167 76
18:02:04.059601 642.81 1552 1912 13868 -1421 -125 48
18:02:04.091194 642.82 1496 2012 14276 -901 -42 33
18:02:04.100865 642.83 1508 2052 14268 -699 8 9
18:02:04.101012 642.84 1520 1920 14492 -732 31 11
18:02:04.101131 642.85 1592 1940 14508 -913 67 -15
18:02:04.101244 642.86 1512 1960 14168 -1118 -4 30
18:02:04.105677 642.87 1548 1912 14344 -1188 -3 -5
18:02:04.107520 642.88 1468 1808 14240 -1231 -55 39
18:02:04.130325 642.89 1560 1868 14280 -1282 -83 24
18:02:04.150624 642.9 1516 1848 14224 -1125 -74 26
18:02:04.161722 642.91 1316 1820 14124 -1219 -39 23
18:02:04.161932 642.92 1556 1700 14160 -1119 -10 45
18:02:04.165147 642.93 1380 1872 14284 -984 53 26
18:02:04.166377 642.94 1476 1776 14232 -961 83 27
18:02:04.188260 642.95 1488 1788 14244 -813 54 15
18:02:04.198481 642.96 1536 1776 14436 -657 110 12
18:02:04.200645 642.97 1600 1812 14320 -677 73 -11
18:02:04.220381 642.98 1512 1736 14680 -541 312 -5
18:02:04.229996 642.99 1372 1896 14140 -784 120 15
18:02:04.230284 643.0 1440 1716 13964 -1248 -65 81
18:02:04.238257 643.01 1604 1600 14148 -785 69 34
18:02:04.263512 643.02 1464 1624 14268 -763 -23 -15
18:02:04.266041 643.03 1576 1692 14204 -692 -99 23
18:02:04.283433 643.04 1648 1616 14328 -501 129 -42
18:02:04.298139 643.05 1508 1632 14248 -468 68 -13
18:02:04.355352 643.06 1544 1704 14268 -462 21 18
18:02:04.363315 643.07 1524 1704 14352 -545 31 3
18:02:04.363490 643.08 1656 1544 14368 -490 54 -19
18:02:04.363631 643.09 1708 1628 14440 -342 158 -26
18:02:04.363783 643.1 1700 1568 14360 -217 217 -61
18:02:04.363925 643.11 1600 1548 14332 -204 245 -14
18:02:04.364124 643.12 1612 1524 14368 -182 278 23
18:02:04.364269 643.13 1604 1508 14240 -168 236 2
18:02:04.390524 643.14 1608 1576 14256 -42 259 17
18:02:04.399909 643.15 1576 1536 14268 182 261 8
18:02:04.400121 643.16 1624 1648 14104 207 243 -5
18:02:04.403021 643.17 1556 1516 14212 252 277 -26
18:02:04.420137 643.18 1444 1568 14100 451 304 -25
18:02:04.434954 643.19 1592 1696 14200 566 334 -15
18:02:04.442910 643.2 1564 1668 14280 664 379 -15
18:02:04.463397 643.21 1588 1644 14264 667 414 0
18:02:04.463701 643.22 1488 1660 14164 659 444 24
18:02:04.486969 643.23 1488 1656 14160 782 457 9
18:02:04.496560 643.24 1580 1860 14176 932 419 1
18:02:04.502686 643.25 1596 1744 14224 1162 508 -33
18:02:04.504302 643.26 1432 1768 14128 1263 498 -19
18:02:04.524109 643.27 1496 1828 14212 1454 534 -53
18:02:04.552934 643.28 1620 1900 14256 1661 604 -15
18:02:04.563395 643.29 1540 1964 14244 1771 559 -40
18:02:04.563642 643.3 1600 1976 14080 1875 638 -46
18:02:04.563846 643.31 1548 2004 14252 2048 687 -93
18:02:04.587648 643.32 1576 2016 14084 2103 756 -91
18:02:04.596830 643.33 1448 2092 14204 2254 789 -124
18:02:04.596982 643.34 1516 2256 14280 2289 842 -130
18:02:04.600351 643.35 1596 2264 14304 2229 844 -107
18:02:04.602084 643.36 1440 2360 14464 2137 909 -120
18:02:04.637068 643.37 1388 2392 14296 1976 814 -113
18:02:04.689347 643.38 1392 2420 14228 1793 649 -111
18:02:04.697378 643.39 1412 2404 14284 1702 651 -100
18:02:04.733589 643.4 1352 2464 14228 1622 583 -77
18:02:04.786717 643.41 1328 2576 14116 1621 565 -90
18:02:04.863545 643.42 1300 2500 14200 1658 540 -90
18:02:04.866131 643.43 1288 2592 14264 1626 510 -45
18:02:04.867160 643.44 1268 2664 14192 1594 525 -61
18:02:04.868362 643.45 1260 2668 14108 1305 552 -49
18:02:04.869474 643.46 1240 2660 14052 1101 460 -45
18:02:04.878151 643.47 1304 2628 14116 1308 620 -66
18:02:04.902428 643.48 1292 2700 14472 1575 707 -116
18:02:04.902821 643.49 1368 2864 14336 1631 752 -129
18:02:04.903097 643.5 1260 2724 14100 1542 653 -107
18:02:04.903259 643.51 1244 2920 13932 71 257 82
18:02:04.903419 643.52 1240 3028 13512 -228 -24 120
18:02:04.906033 643.53 1340 2896 13916 610 455 -6
18:02:04.954346 643.54 1236 3084 14288 1423 491 -96
18:02:04.964559 643.55 1220 3256 14432 1614 460 -89
18:02:04.977163 643.56 1092 3236 14272 1525 552 -87
18:02:04.979968 643.57 1132 3416 14196 1499 590 -86
18:02:05.025113 643.58 1064 3488 14456 1309 569 -85
18:02:05.085651 643.59 1224 3428 14352 1087 451 -51
18:02:05.103563 643.6 1124 3464 14336 777 515 -38
18:02:05.104000 643.61 1172 3348 14148 417 467 -5
18:02:05.104363 643.62 1084 3408 14040 173 485 -1
18:02:05.104718 643.63 1096 3364 14024 212 407 -7
18:02:05.105081 643.64 1192 3360 14140 368 341 -2
18:02:05.107689 643.65 1252 3356 14400 180 213 3
18:02:05.113493 643.66 1160 3308 14128 13 110 16
18:02:05.134402 643.67 1128 3388 14212 -316 -92 29
18:02:05.134542 643.68 1136 3260 14004 -447 -287 78
18:02:05.134742 643.69 1296 3176 14088 -454 -188 141
18:02:05.135046 643.7 1216 3152 13764 -300 -40 121
18:02:05.135287 643.71 1188 3336 14008 87 133 89
18:02:05.192061 643.72 1240 3328 14060 493 265 21
18:02:05.200978 643.73 1200 3368 14028 715 370 -22
18:02:05.201330 643.74 1240 3444 14088 691 453 -44
18:02:05.201636 643.75 1200 3516 14216 601 407 -49
18:02:05.201908 643.76 1192 3488 14200 417 344 -22
18:02:05.202171 643.77 1180 3440 14252 510 704 -70
18:02:05.202441 643.78 1100 3492 13996 -392 276 102
18:02:05.202697 643.79 1080 3392 13768 -598 201 119
18:02:05.202994 643.8 1204 3436 14028 -412 283 56
18:02:05.231005 643.81 1128 3480 14132 222 489 -65
18:02:05.258557 643.82 1140 3460 14180 167 447 -61
18:02:05.273233 643.83 1116 3492 13900 -22 472 -41
18:02:05.273448 643.84 1164 3372 14064 84 430 -53
18:02:05.273616 643.85 1384 3384 14152 -9 315 -5
18:02:05.326704 643.86 1128 3324 13804 -78 323 26
18:02:05.334372 643.87 1196 3444 14012 550 423 -76
18:02:05.334526 643.88 1176 3488 14252 691 615 -148
18:02:05.334658 643.89 1188 3524 14080 723 589 -121
18:02:05.334785 643.9 1168 3512 14048 395 445 -79
18:02:05.335097 643.91 1284 3448 14184 163 414 -74
18:02:05.335967 643.92 1192 3388 14028 189 382 -66
18:02:05.356252 643.93 1160 3384 13848 261 376 -58
18:02:05.376632 643.94 1172 3376 14032 224 236 -1
18:02:05.377700 643.95 1224 3376 13952 303 289 -55
18:02:05.378561 643.96 1160 3480 14056 506 356 -30
18:02:05.423378 643.97 1212 3608 14040 651 454 -85
18:02:05.434865 643.98 996 3564 14108 678 461 -112
18:02:05.435140 643.99 1140 3652 13976 507 384 -61
18:02:05.449895 644.0 1112 3592 14068 210 408 -47
18:02:05.467077 644.01 996 3660 13844 171 275 -22
18:02:05.470648 644.02 1120 3604 14044 138 295 -2
18:02:05.473400 644.03 1136 3756 13932 213 305 -24
18:02:05.524105 644.04 1056 3716 13912 331 317 -4
18:02:05.536420 644.05 1036 3752 14008 369 381 -43
18:02:05.536526 644.06 1136 3692 14116 363 350 -43
18:02:05.536595 644.07 1052 3764 14140 384 383 -41
18:02:05.536660 644.08 1124 3752 13968 315 341 -35
18:02:05.536725 644.09 988 3664 13980 263 333 -9
18:02:05.536791 644.1 1012 3576 13896 267 364 6
18:02:05.536855 644.11 1140 3716 13868 329 355 -26
18:02:05.543008 644.12 1112 3684 13992 427 416 -16
18:02:05.566773 644.13 1096 3636 14112 406 403 -46
18:02:05.597029 644.14 1052 3780 13876 417 433 -62
18:02:05.604165 644.15 1068 3712 14056 385 403 -80
18:02:05.604260 644.16 1092 3900 13976 393 396 -63
18:02:05.604331 644.17 1004 3916 13912 347 370 -75
18:02:05.604399 644.18 1028 3764 14000 333 361 -50
18:02:05.629672 644.19 944 3848 13924 290 379 -67
18:02:05.637499 644.2 1044 3872 14028 235 298 -5
18:02:05.641137 644.21 1116 3792 13924 212 309 -52
18:02:05.668881 644.22 1228 3688 13780 237 210 -20
18:02:05.670096 644.23 1124 3748 13900 174 317 -29
18:02:05.671149 644.24 916 3916 13912 243 369 6
18:02:05.691192 644.25 1068 3876 14108 479 331 -27
18:02:05.709685 644.26 1128 3884 14072 489 418 -54
18:02:05.709798 644.27 1120 3780 13992 508 365 -68
18:02:05.730077 644.28 1152 3960 13976 553 409 -36
18:02:05.743069 644.29 1096 3924 14008 444 409 -39
18:02:05.743187 644.3 1068 3920 13912 471 372 -37
18:02:05.756672 644.31 968 3884 13952 518 386 -53
18:02:05.773058 644.32 1140 3984 14032 501 374 -66
18:02:05.773448 644.33 996 3988 13976 535 386 -48
18:02:05.773680 644.34 1008 4064 13972 602 410 -56
18:02:05.813828 644.35 1072 4016 13828 581 407 -88
18:02:05.815473 644.36 856 3988 13916 455 393 -20
18:02:05.836707 644.37 912 4048 13936 344 316 -11
18:02:05.836839 644.38 1012 3960 13860 225 258 -22
18:02:05.836942 644.39 1028 3980 13908 325 342 -16
18:02:05.845665 644.4 1024 4016 14068 660 528 -91
18:02:05.847480 644.41 896 4132 14032 767 558 -144
18:02:05.859960 644.42 880 4048 13944 540 441 -98
18:02:05.892955 644.43 920 4044 13884 336 365 -33
18:02:05.904407 644.44 964 4032 13964 261 296 -52
18:02:05.904565 644.45 984 4200 14092 242 257 -18
18:02:05.905097 644.46 908 4160 13888 -353 200 96
18:02:05.906200 644.47 1100 4056 13376 -843 -83 104
18:02:05.927048 644.48 1200 4080 14516 525 536 -118
18:02:05.946598 644.49 888 4380 14160 879 396 -112
18:02:05.947878 644.5 944 4184 13728 -202 -70 82
18:02:05.948640 644.51 992 4108 13824 -359 150 62
18:02:05.965572 644.52 912 4072 13616 -466 97 103
18:02:05.971702 644.53 1040 3908 13572 -478 -58 119
18:02:05.978064 644.54 1092 3944 13620 84 145 41
18:02:06.024441 644.55 1060 4172 14076 375 161 1
18:02:06.040808 644.56 940 4208 14132 553 7 7
18:02:06.041110 644.57 928 4192 14080 611 143 -14
18:02:06.041358 644.58 824 4216 13964 562 210 1
18:02:06.041599 644.59 1032 4212 14032 474 215 -5
18:02:06.041838 644.6 1016 4340 13916 330 288 10
18:02:06.045556 644.61 1056 4324 13880 148 339 -3
18:02:06.060579 644.62 968 4284 13812 66 331 -30
18:02:06.078068 644.63 988 4200 13740 110 300 -44
18:02:06.079841 644.64 920 4216 13756 284 352 8
18:02:06.083972 644.65 1012 4176 13716 391 295 -36
18:02:06.105796 644.66 968 4160 13848 383 253 -38
18:02:06.116164 644.67 904 4164 13960 349 251 -19
18:02:06.118345 644.68 960 4144 14016 295 242 -14
18:02:06.148877 644.69 912 4216 13928 227 309 -23
18:02:06.150498 644.7 996 4200 13880 93 329 -37
18:02:06.172495 644.71 1008 4264 13920 49 294 -9
18:02:06.172651 644.72 1028 4240 13844 18 265 -35
18:02:06.183416 644.73 908 4328 13988 -47 242 -22
18:02:06.210010 644.74 1052 4336 13900 -98 234 5
18:02:06.210287 644.75 1008 4284 14024 -106 287 -19
18:02:06.210502 644.76 968 4316 13864 -56 275 7
18:02:06.229324 644.77 956 4304 13808 -9 290 -19
18:02:06.246205 644.78 904 4252 13820 63 336 -24
18:02:06.246486 644.79 924 4284 13772 132 330 -28
18:02:06.246727 644.8 812 4336 13844 157 356 -20
18:02:06.298915 644.81 876 4332 13792 87 232 -21
18:02:06.307112 644.82 1052 4340 14084 256 543 -76
18:02:06.307265 644.83 832 4360 13804 -204 240 -4
18:02:06.307460 644.84 988 4268 13580 -619 87 63
18:02:06.307686 644.85 944 4244 13824 -107 328 0
18:02:06.307907 644.86 816 4388 13924 213 363 -78
18:02:06.315957 644.87 880 4268 13900 132 261 -8
18:02:06.344448 644.88 1060 4344 13824 -21 249 1
18:02:06.345511 644.89 916 4364 13840 -138 289 5
18:02:06.346757 644.9 904 4356 13880 -33 227 17
18:02:06.362703 644.91 1024 4396 13876 -78 145 30
18:02:06.374762 644.92 940 4328 13880 -121 188 12
18:02:06.375509 644.93 908 4384 13956 -75 226 15
18:02:06.396625 644.94 976 4480 13992 -57 212 10
18:02:06.406072 644.95 976 4352 13900 -85 170 -2
18:02:06.406199 644.96 996 4416 13800 -151 187 21
18:02:06.413118 644.97 964 4312 13700 -209 149 46
18:02:06.421182 644.98 1016 4208 13820 -179 165 1
18:02:06.440504 644.99 904 4300 13856 -102 224 4
18:02:06.466050 645.0 896 4376 13796 -127 215 22
18:02:06.474476 645.01 968 4392 13816 -287 156 27
18:02:06.474714 645.02 948 4376 13916 -319 227 19
18:02:06.502527 645.03 852 4272 13732 -273 202 -12
18:02:06.510543 645.04 924 4348 14032 -256 229 9
18:02:06.510639 645.05 884 4304 13900 -286 182 22
18:02:06.528023 645.06 988 4308 13844 -319 187 23
18:02:06.541556 645.07 900 4252 13848 -368 184 34
18:02:06.541801 645.08 900 4296 13936 -360 172 22
18:02:06.542074 645.09 1008 4304 13880 -379 159 53
18:02:06.563025 645.1 868 4304 13860 -339 180 28
18:02:06.574782 645.11 952 4348 13952 -315 205 32
18:02:06.580270 645.12 1024 4372 14052 -319 203 17
18:02:06.581896 645.13 1028 4316 13844 -351 205 32
18:02:06.600095 645.14 820 4220 14004 -378 225 24
18:02:06.632406 645.15 952 4284 13932 -432 213 35
18:02:06.641855 645.16 956 4220 13904 -484 182 31
18:02:06.641959 645.17 860 4392 13888 -554 183 38
18:02:06.642034 645.18 888 4196 13888 -636 189 33
18:02:06.653630 645.19 900 4164 13932 -678 167 51
18:02:06.696780 645.2 1024 4272 13936 -744 145 50
18:02:06.708343 645.21 1120 4296 13952 -867 112 73
18:02:06.708495 645.22 1024 4208 13944 -972 103 50
18:02:06.710431 645.23 1048 4148 13848 -1076 58 76
18:02:06.715383 645.24 952 4084 13940 -1158 29 96
18:02:06.717451 645.25 928 4176 14004 -1288 63 102
18:02:06.719588 645.26 948 4188 13876 -1454 -33 127
18:02:06.742744 645.27 992 4076 13920 -1545 -34 145
18:02:06.743030 645.28 980 3936 13772 -1613 -4 119
18:02:06.750752 645.29 988 4100 14076 -1651 -51 180
18:02:06.776875 645.3 988 4024 14076 -1757 -115 200
18:02:06.778979 645.31 960 4004 13980 -2006 -173 271
18:02:06.807362 645.32 1100 3928 14092 -2320 -227 318
18:02:06.818264 645.33 1032 3880 13916 -2498 -310 344
18:02:06.818417 645.34 972 3668 13988 -2383 -346 263
18:02:06.818849 645.35 1168 3724 13928 -2262 -302 263
18:02:06.835560 645.36 1136 3708 13852 -2172 -188 228
18:02:06.838220 645.37 1056 3648 13960 -2004 -78 192
18:02:06.851294 645.38 1188 3552 13924 -1911 -81 157
18:02:06.860741 645.39 1168 3676 13936 -1875 1 123
18:02:06.901167 645.4 1160 3516 13916 -1951 9 147
18:02:06.902540 645.41 1020 3560 13916 -1984 -94 136
18:02:06.903564 645.42 1084 3388 14052 -1889 -104 150
18:02:06.906151 645.43 1068 3480 14112 -1858 -93 114
18:02:06.932315 645.44 1188 3328 14232 -1947 -200 173
18:02:06.932472 645.45 1092 3348 14044 -2115 -205 168
18:02:06.959930 645.46 904 3244 14084 -2251 -327 181
18:02:06.961142 645.47 1204 3164 13952 -2062 -233 148
18:02:06.962098 645.48 1152 3208 14220 -1696 -92 73
18:02:06.970408 645.49 1256 3272 14028 -1577 -62 101
18:02:06.992558 645.5 1236 3260 14232 -1659 -67 84
18:02:07.023934 645.51 1096 3104 14208 -1790 -197 94
18:02:07.026639 645.52 1112 3124 13900 -1994 -321 131
18:02:07.028976 645.53 1212 2960 14140 -1836 -283 143
18:02:07.030030 645.54 1184 2904 14312 -1743 -122 156
18:02:07.032456 645.55 1132 3048 13768 -2516 -203 209
18:02:07.034781 645.56 1316 2692 13892 -2882 -550 182
18:02:07.053846 645.57 1496 2720 14628 -1298 23 -25
18:02:07.062803 645.58 1208 2912 14148 -895 -335 52
18:02:07.081006 645.59 1208 2780 13944 -2024 -721 165
18:02:07.097715 645.6 1420 2636 14388 -1447 -2 44
18:02:07.118928 645.61 1176 2680 13820 -1800 -347 177
18:02:07.131910 645.62 1380 2592 13800 -2267 -553 205
18:02:07.132224 645.63 1288 2516 14268 -1104 113 62
18:02:07.132473 645.64 1348 2656 14704 -783 105 -10
18:02:07.135260 645.65 1164 2804 14584 -1169 -5 24
18:02:07.137259 645.66 1260 2640 14304 -1567 -33 68
18:02:07.150281 645.67 1244 2616 14308 -1810 -61 96
18:02:07.163511 645.68 1252 2564 14240 -1959 -239 134
18:02:07.185107 645.69 1256 2404 14068 -2084 -319 144
18:02:07.193983 645.7 1376 2364 14296 -2225 -264 113
18:02:07.194363 645.71 1396 2340 13936 -2229 -178 104
18:02:07.219529 645.72 1416 2276 13940 -2165 -177 88
18:02:07.227420 645.73 1496 2084 14004 -1589 -167 64
18:02:07.232760 645.74 1416 2184 14224 -1080 -93 31
18:02:07.234526 645.75 1420 2236 14380 -999 -84 19
18:02:07.252902 645.76 1420 2148 14464 -970 -59 40
18:02:07.262986 645.77 1288 2108 14280 -1042 -18 0
18:02:07.270269 645.78 1464 2164 14212 -1235 -4 39
18:02:07.272040 645.79 1520 2096 14100 -1354 29 7
18:02:07.297126 645.8 1452 2080 14348 -1371 9 27
18:02:07.297376 645.81 1424 2044 14212 -1526 -45 16
18:02:07.306151 645.82 1444 1944 14192 -1622 -136 26
18:02:07.319314 645.83 1508 2024 14156 -1548 -133 10
18:02:07.330067 645.84 1524 1880 14224 -1534 -53 3
18:02:07.331293 645.85 1496 2004 14204 -1395 -13 18
18:02:07.353496 645.86 1560 1944 14368 -1121 43 9
18:02:07.362223 645.87 1484 1900 14376 -1087 46 17
18:02:07.365360 645.88 1496 2032 14356 -1053 103 11
18:02:07.373719 645.89 1508 1856 14404 -1076 -3 -23
18:02:07.396694 645.9 1448 1804 14416 -898 169 44
18:02:07.397055 645.91 1432 1860 14136 -1317 -52 40
18:02:07.415808 645.92 1448 1676 14008 -1465 -190 77
18:02:07.429837 645.93 1668 1700 14392 -927 36 -4
18:02:07.434187 645.94 1560 1704 14132 -1115 -226 2
18:02:07.450417 645.95 1576 1804 14204 -1093 -41 58
18:02:07.465934 645.96 1548 1672 14364 -1006 -53 18
18:02:07.466217 645.97 1572 1740 14320 -1087 26 -13
18:02:07.467166 645.98 1564 1780 14296 -1173 -132 18
18:02:07.471013 645.99 1544 1676 14348 -1258 -100 -15
18:02:07.485615 646.0 1672 1608 14408 -1171 10 -56
18:02:07.500532 646.01 1592 1608 14404 -1145 19 -66
18:02:07.508135 646.02 1580 1564 14388 -1140 12 -27
18:02:07.525780 646.03 1520 1444 14348 -1105 16 -14
18:02:07.533360 646.04 1596 1420 14292 -1009 41 -18
18:02:07.552870 646.05 1604 1452 14176 -1032 36 7
18:02:07.565785 646.06 1708 1388 14276 -896 27 -3
18:02:07.570150 646.07 1572 1396 14256 -852 -5 -14
18:02:07.571955 646.08 1448 1420 14060 -908 -121 -3
18:02:07.593105 646.09 1572 1448 14236 -737 -67 -11
18:02:07.600581 646.1 1724 1412 14384 -505 104 -18
18:02:07.605804 646.11 1616 1328 14236 -530 31 -5
18:02:07.685020 646.12 1660 1452 14168 -581 91 3
18:02:07.698624 646.13 1580 1372 14256 -529 121 20
18:02:07.698985 646.14 1640 1332 14256 -510 181 33
18:02:07.699092 646.15 1600 1292 14284 -467 161 2
18:02:07.699195 646.16 1700 1440 14284 -302 233 21
18:02:07.699296 646.17 1616 1416 14168 -262 151 32
18:02:07.699398 646.18 1632 1436 14384 -157 169 -6
18:02:07.699500 646.19 1688 1440 14244 -63 210 9
18:02:07.699601 646.2 1508 1456 14232 -39 232 21
18:02:07.751593 646.21 1596 1392 14236 62 231 17
18:02:07.773653 646.22 1656 1336 14172 165 277 32
18:02:07.773779 646.23 1644 1360 14160 354 348 -17
18:02:07.773846 646.24 1616 1476 14324 493 385 -26
18:02:07.773910 646.25 1760 1408 14332 581 460 -4
18:02:07.773972 646.26 1680 1384 14332 557 449 -5
18:02:07.791523 646.27 1496 1476 14292 488 353 -13
18:02:07.794539 646.28 1636 1468 14212 555 411 -7
18:02:07.795080 646.29 1580 1444 14448 643 464 -41
18:02:07.808657 646.3 1572 1528 14280 635 385 -34
18:02:07.816600 646.31 1560 1524 14284 667 387 -19
18:02:07.816928 646.32 1596 1472 14296 753 389 -46
18:02:07.823495 646.33 1528 1596 14204 772 425 -44
18:02:07.840711 646.34 1528 1564 14396 696 440 -41
18:02:07.847587 646.35 1508 1632 14292 663 422 -16
18:02:07.874675 646.36 1568 1640 14252 555 413 -46
18:02:07.879744 646.37 1508 1660 14264 611 435 -23
18:02:07.879881 646.38 1588 1708 14276 641 409 -25
18:02:07.911580 646.39 1580 1616 14160 598 384 -7
18:02:07.913185 646.4 1548 1604 14212 610 323 31
18:02:07.913613 646.41 1516 1708 14132 586 314 26
18:02:07.923630 646.42 1508 1632 14192 594 334 -22
18:02:07.924970 646.43 1596 1636 14408 802 508 -44
18:02:07.943993 646.44 1576 1824 14520 1038 607 -55
18:02:07.969779 646.45 1572 1872 14556 929 528 -77
18:02:07.983382 646.46 1508 1932 14388 780 455 -52
18:02:07.983759 646.47 1412 1796 14132 645 351 -38
18:02:08.011567 646.48 1548 1808 14092 735 274 1
18:02:08.017169 646.49 1496 1732 14324 1030 401 -38
18:02:08.017255 646.5 1432 1840 14396 985 516 3
18:02:08.017325 646.51 1432 2052 13764 210 351 7
18:02:08.018867 646.52 1596 1704 14296 879 389 -19
18:02:08.025765 646.53 1720 1844 14812 2606 805 -219
18:02:08.048185 646.54 1400 2164 14040 2012 182 -115
18:02:08.059996 646.55 1660 1976 14308 1541 526 -122
18:02:08.065446 646.56 1440 2088 14296 1997 1035 -127
18:02:08.084106 646.57 1356 2160 13532 702 140 35
18:02:08.084280 646.58 1508 2016 13812 749 428 15
18:02:08.085685 646.59 1544 2180 14156 1800 704 -104
18:02:08.121701 646.6 1444 2276 14524 2007 657 -170
18:02:08.130645 646.61 1392 2432 14408 1937 660 -131
18:02:08.157880 646.62 1388 2476 14408 1766 757 -136
18:02:08.166289 646.63 1380 2424 14508 1574 795 -101
18:02:08.166414 646.64 1288 2508 14588 1146 611 -48
18:02:08.166513 646.65 1324 2544 14352 745 490 -50
18:02:08.177901 646.66 1332 2536 14360 289 355 -30
18:02:08.202137 646.67 1228 2384 14080 -70 269 42
18:02:08.202292 646.68 1424 2404 13840 -184 93 54
18:02:08.229208 646.69 1440 2296 13984 40 342 4
18:02:08.237716 646.7 1412 2268 14160 382 116 4
18:02:08.237864 646.71 1428 2280 14212 676 344 -39
18:02:08.237974 646.72 1408 2400 14224 997 359 -55
18:02:08.238077 646.73 1392 2420 14284 1092 442 -48
18:02:08.243640 646.74 1428 2400 14060 1101 412 -34
18:02:08.258572 646.75 1300 2484 14068 1296 486 -37
18:02:08.275036 646.76 1496 2516 14292 1342 526 -32
18:02:08.332640 646.77 1344 2628 14220 1478 607 -63
18:02:08.335625 646.78 1244 2552 14236 1460 578 -71
18:02:08.338598 646.79 1360 2792 14296 1353 626 -64
18:02:08.341599 646.8 1284 2808 14176 1226 528 -22
18:02:08.342888 646.81 1376 2748 14048 987 498 1
18:02:08.343968 646.82 1280 2836 14148 1004 501 21
18:02:08.346806 646.83 1232 2860 14216 1068 500 -6
18:02:08.367883 646.84 1056 3076 14236 1178 495 -62
18:02:08.368117 646.85 1264 3176 14752 1322 718 -111
18:02:08.379765 646.86 1020 3128 14304 723 657 -18
18:02:08.406214 646.87 1224 2984 14084 -169 278 48
18:02:08.407333 646.88 1276 2912 13968 -321 295 24
18:02:08.409060 646.89 1216 2832 14044 -375 52 4
18:02:08.459258 646.9 1264 2868 14224 79 169 -48
18:02:08.467039 646.91 1216 2908 14280 69 218 -41
18:02:08.467203 646.92 1168 2884 13984 35 231 -34
18:02:08.467374 646.93 1284 2912 14200 211 242 -12
18:02:08.467568 646.94 1344 2800 14188 274 172 -15
18:02:08.467714 646.95 1436 2868 14072 325 186 -35
18:02:08.475861 646.96 1360 2908 14020 391 275 -42
18:02:08.531936 646.97 1308 2912 14164 561 345 -39
18:02:08.541028 646.98 1336 3116 14136 741 412 -59
18:02:08.541120 646.99 1348 2920 14140 764 442 -102
18:02:08.541183 647.0 1324 2968 14200 686 418 -40
18:02:08.541244 647.01 1260 2936 14180 599 483 -48
18:02:08.542405 647.02 1280 2960 13972 596 313 32
18:02:08.587159 647.03 1172 2964 14160 465 278 52
18:02:08.602284 647.04 1284 3004 14096 582 373 -26
18:02:08.602387 647.05 1180 3080 14152 836 355 -48
18:02:08.602461 647.06 1108 3152 14268 850 417 -47
18:02:08.602532 647.07 1096 3052 14260 666 432 -35
18:02:08.602602 647.08 1248 3204 14128 508 391 -10
18:02:08.610726 647.09 1280 3200 14048 512 509 -38
18:02:08.640149 647.1 1128 3344 14352 480 351 -39
18:02:08.641239 647.11 1164 3304 14116 128 385 -4
18:02:08.642391 647.12 1180 3232 14252 22 368 9
18:02:08.658749 647.13 1184 3192 14088 -14 339 14
18:02:08.675138 647.14 1200 3304 14188 -51 183 -8
18:02:08.675240 647.15 1164 3208 14188 -63 201 18
18:02:08.678493 647.16 1188 3188 14004 -61 195 52
18:02:08.693832 647.17 1288 3104 13884 -86 174 43
18:02:08.727676 647.18 1336 3176 14060 17 186 -3
18:02:08.738892 647.19 1172 3236 14136 96 272 8
18:02:08.743942 647.2 1316 3156 14072 171 325 -13
18:02:08.744999 647.21 1220 3308 14172 262 390 -26
18:02:08.746371 647.22 1208 3248 14148 209 349 -45
18:02:08.794514 647.23 1160 3120 14008 94 359 -3
18:02:08.804302 647.24 1092 3208 14040 -58 295 11
18:02:08.804517 647.25 1168 3200 14060 -142 228 39
18:02:08.804727 647.26 1180 3188 14024 -152 175 31
18:02:08.804920 647.27 1124 3304 14104 -41 250 18
18:02:08.805119 647.28 1180 3304 14168 137 282 -51
18:02:08.813052 647.29 1132 3248 14136 289 332 -27
18:02:08.831290 647.3 1368 3316 14168 262 349 -76
18:02:08.842608 647.31 1256 3244 14052 115 340 -29
18:02:08.864132 647.32 1228 3232 14232 18 272 -2
18:02:08.871566 647.33 1208 3204 14116 -62 269 1
18:02:08.871757 647.34 1224 3316 13908 8 294 3
18:02:08.873130 647.35 1156 3372 14220 71 240 1
18:02:08.892634 647.36 1112 3288 14044 -40 246 6
18:02:08.904433 647.37 1176 3220 13912 -53 255 15
18:02:08.913369 647.38 1104 3304 14064 106 229 -17
18:02:08.914579 647.39 1224 3400 14092 189 274 -39
18:02:08.930803 647.4 1084 3320 14228 196 304 -36
18:02:08.941237 647.41 1168 3304 14188 184 286 -27
18:02:08.959367 647.42 1244 3336 13996 122 251 -47
18:02:08.968295 647.43 1212 3232 14160 93 302 -7
18:02:08.972701 647.44 1188 3324 14256 214 434 -44
18:02:08.974566 647.45 1092 3332 14176 217 420 -54
18:02:08.978426 647.46 1124 3316 14116 -124 248 -10
18:02:08.993240 647.47 1104 3276 14152 -304 175 -9
18:02:09.010135 647.48 1236 3356 14220 -254 156 -28
18:02:09.011232 647.49 1024 3136 14292 -470 185 19
18:02:09.034171 647.5 972 3392 13680 -1473 -29 173
18:02:09.037143 647.51 1400 3200 13852 -1419 -249 171
18:02:09.046014 647.52 1404 3280 14632 173 223 -46
18:02:09.081539 647.53 1260 3476 14484 201 296 -68
18:02:09.082469 647.54 1076 3384 14280 -631 -18 105
18:02:09.084045 647.55 1216 3204 13832 -870 -198 128
18:02:09.102942 647.56 1268 3008 13468 -1413 -400 305
18:02:09.103050 647.57 1168 2888 13340 -1480 -467 318
18:02:09.136999 647.58 1248 2840 13576 -139 -151 120
18:02:09.139713 647.59 1328 3152 14176 790 202 -27
18:02:09.139822 647.6 1248 3180 14196 1298 368 -90
18:02:09.140822 647.61 1260 3216 14236 1459 488 -69
18:02:09.202685 647.62 1180 3364 14300 1453 719 -46
18:02:09.208917 647.63 1164 3328 14248 1341 563 -32
18:02:09.209000 647.64 1192 3504 14224 1147 428 2
18:02:09.209065 647.65 1096 3432 14268 620 390 27
18:02:09.209126 647.66 1156 3532 13940 502 363 26
18:02:09.212888 647.67 1112 3520 13988 498 389 14
18:02:09.214735 647.68 1112 3412 14020 724 375 -51
18:02:09.216935 647.69 1104 3524 13968 910 374 -59
18:02:09.237819 647.7 1188 3496 14060 999 327 -80
18:02:09.250191 647.71 1268 3428 14240 907 264 -64
18:02:09.253922 647.72 1032 3516 14088 795 245 -20
18:02:09.279351 647.73 1204 3476 14104 599 315 -6
18:02:09.279497 647.74 1164 3504 14152 568 365 -27
18:02:09.298967 647.75 1180 3580 14076 455 334 -37
18:02:09.305204 647.76 1092 3636 14048 328 319 -33
18:02:09.305335 647.77 1152 3552 14076 312 283 -40
18:02:09.308482 647.78 1116 3620 13864 283 295 -47
18:02:09.349102 647.79 1224 3496 14108 341 306 -34
18:02:09.357940 647.8 1180 3596 14008 360 301 -21
18:02:09.358063 647.81 1172 3696 14040 404 386 -37
18:02:09.358176 647.82 1084 3608 14016 627 431 -59
18:02:09.368641 647.83 1156 3624 14080 723 402 -66
18:02:09.398574 647.84 1068 3784 14032 730 422 -72
18:02:09.399993 647.85 1248 3784 14124 632 339 -48
18:02:09.425945 647.86 1092 3724 14184 578 414 -32
18:02:09.426295 647.87 948 3720 13932 350 488 1
18:02:09.426562 647.88 1004 3692 13832 12 246 28
18:02:09.426816 647.89 1220 3636 14048 385 353 -22
18:02:09.428474 647.9 1152 3784 13936 600 384 -54
18:02:09.452136 647.91 1096 3776 13816 449 317 -34
18:02:09.479446 647.92 1036 3868 13860 323 298 -32
18:02:09.487299 647.93 1028 3748 13960 342 329 -27
18:02:09.493779 647.94 1096 3792 14040 465 347 -23
18:02:09.495021 647.95 1032 3836 14052 487 270 -52
18:02:09.496171 647.96 1108 3728 13980 358 302 -24
18:02:09.515062 647.97 1140 3852 13952 343 281 -29
18:02:09.522466 647.98 1180 3792 14048 269 298 -23
18:02:09.525730 647.99 1104 3892 14004 245 270 -32
18:02:09.533135 648.0 1124 3892 13956 214 272 -10
18:02:09.550178 648.01 1152 3776 14028 192 271 -3
18:02:09.555255 648.02 1084 3828 13844 130 312 -14
18:02:09.563005 648.03 1144 3784 13908 238 295 -18
18:02:09.579358 648.04 1208 3836 14028 332 354 -7
18:02:09.597376 648.05 1044 3800 13916 156 260 10
18:02:09.613795 648.06 1152 3960 13848 -75 239 41
18:02:09.625534 648.07 1208 3840 13988 -11 296 -10
18:02:09.625761 648.08 1080 3956 13944 -36 267 2
18:02:09.632872 648.09 1092 3892 14112 -116 246 18
18:02:09.634570 648.1 1036 3808 13976 -158 213 17
18:02:09.647919 648.11 1004 3932 13752 -171 208 49
18:02:09.682961 648.12 1064 3924 14036 -80 220 43
18:02:09.690754 648.13 1100 3908 14016 14 274 24
18:02:09.696325 648.14 1056 3896 13916 114 306 3
18:02:09.697419 648.15 1076 3996 14012 286 322 -32
18:02:09.698701 648.16 1092 3972 14080 302 323 16
18:02:09.734177 648.17 1028 4036 13936 340 382 -41
18:02:09.735142 648.18 1036 4000 14020 308 397 -4
18:02:09.737180 648.19 1032 3904 13960 291 337 -18
18:02:09.750387 648.2 968 3972 13904 330 410 -27
18:02:09.762293 648.21 972 4056 14008 279 341 -21
18:02:09.762444 648.22 1056 4024 13932 276 362 -23
18:02:09.765786 648.23 1036 3912 13844 236 287 -9
18:02:09.783955 648.24 1112 3996 13944 249 359 -31
18:02:09.820517 648.25 1060 3964 13896 230 295 -40
18:02:09.830751 648.26 960 4040 14028 236 304 -39
18:02:09.830937 648.27 980 4036 14064 267 334 -46
18:02:09.831053 648.28 1096 4016 13860 216 325 -65
18:02:09.831215 648.29 1036 4048 13984 184 332 -16
18:02:09.853300 648.3 1056 4080 13928 140 313 -34
18:02:09.864042 648.31 1084 4064 13836 177 291 -32
18:02:09.864184 648.32 1044 4120 13892 126 267 -34
18:02:09.887873 648.33 1032 4068 13928 151 269 -7
18:02:09.896464 648.34 872 4136 13952 126 232 -18
18:02:09.903885 648.35 972 4028 13888 152 272 -17
18:02:09.930912 648.36 992 4160 13980 161 323 -37
18:02:09.931036 648.37 952 4164 13880 145 332 -28
18:02:09.951526 648.38 920 4200 13956 103 359 -46
18:02:09.962163 648.39 1032 4180 14008 47 304 -25
18:02:09.962414 648.4 980 4140 13968 19 259 5
18:02:09.962731 648.41 1052 4152 13980 -180 259 -10
18:02:09.964692 648.42 1056 3964 13832 -275 207 10
18:02:09.968243 648.43 1004 4068 13880 -358 215 12
18:02:09.989521 648.44 1040 4116 14004 -351 283 -18
18:02:10.041306 648.45 1020 4108 14284 -267 430 -43
18:02:10.048256 648.46 1040 4244 14084 -364 410 -17
18:02:10.048469 648.47 788 4260 14016 -825 183 49
18:02:10.048816 648.48 916 4188 14024 -1269 19 129
18:02:10.049148 648.49 868 4088 14072 -1549 -153 172
18:02:10.071894 648.5 952 4036 14232 -2086 -275 243
18:02:10.083355 648.51 892 4064 13620 -2998 -317 341
18:02:10.083746 648.52 1220 3808 13932 -3146 -428 330
18:02:10.084201 648.53 1280 3748 14616 -1961 41 156
18:02:10.105577 648.54 968 3964 14024 -1920 -369 221
18:02:10.112329 648.55 1044 3732 13692 -2941 -796 321
18:02:10.119928 648.56 1124 3616 14092 -2705 -231 264
18:02:10.146156 648.57 1000 3524 13736 -2952 -499 394
18:02:10.146480 648.58 1076 3268 13672 -3028 -729 404
18:02:10.148953 648.59 1296 3388 14032 -2226 -381 256
18:02:10.169111 648.6 1324 3524 14284 -1774 -284 196
18:02:10.180100 648.61 1188 3552 14344 -2083 -499 258
18:02:10.204788 648.62 1104 3516 14256 -2385 -317 284
18:02:10.215792 648.63 1148 3408 14180 -2415 -226 289
18:02:10.215894 648.64 1128 3364 14248 -2484 -379 296
18:02:10.215996 648.65 1192 3284 14276 -2722 -430 294
18:02:10.254821 648.66 1232 3300 14176 -2901 -299 288
18:02:10.279003 648.67 1208 3104 13940 -3157 -381 288
18:02:10.279160 648.68 1220 2952 13884 -3083 -355 272
18:02:10.279261 648.69 1220 2852 13844 -2810 -416 254
18:02:10.279356 648.7 1300 2720 13860 -2465 -434 239
18:02:10.279452 648.71 1296 2764 14152 -1996 -294 160
18:02:10.279545 648.72 1304 2688 14276 -1716 -257 143
18:02:10.334355 648.73 1412 2768 14372 -1704 -270 121
18:02:10.342799 648.74 1428 2776 14384 -1789 -239 106
18:02:10.343044 648.75 1332 2908 14468 -1958 -134 134
18:02:10.343258 648.76 1356 2724 14044 -2420 -340 145
18:02:10.343518 648.77 1452 2612 14184 -2458 -473 149
18:02:10.345122 648.78 1444 2532 14276 -2401 -398 107
18:02:10.347064 648.79 1440 2568 14112 -2324 -345 115
18:02:10.372233 648.8 1420 2456 14260 -2305 -299 85
18:02:10.383079 648.81 1484 2444 14284 -2123 -213 44
18:02:10.383236 648.82 1332 2380 14124 -1969 -170 48
18:02:10.436289 648.83 1404 2356 14252 -1841 -148 33
18:02:10.443783 648.84 1388 2324 14272 -1716 -114 48
18:02:10.444028 648.85 1372 2272 14268 -1690 -189 22
18:02:10.444187 648.86 1448 2164 14328 -1543 -117 31
18:02:10.471600 648.87 1424 2288 14160 -1519 -33 48
18:02:10.479846 648.88 1476 2292 13968 -1912 -198 26
18:02:10.480060 648.89 1500 2052 14140 -1824 -288 55
18:02:10.480298 648.9 1448 2012 14284 -1308 -142 -17
18:02:10.480486 648.91 1576 2092 14428 -1337 -77 20
18:02:10.485813 648.92 1512 2060 14208 -1595 -27 21
18:02:10.503149 648.93 1432 2032 14292 -1704 -117 2
18:02:10.511832 648.94 1492 2092 14368 -1635 -140 24
18:02:10.533642 648.95 1628 2012 14364 -1738 -135 -4
18:02:10.543758 648.96 1564 1960 14364 -1785 -73 3
18:02:10.543870 648.97 1576 1980 14208 -1917 -153 -54
18:02:10.570206 648.98 1520 1612 14544 -1892 -98 -15
18:02:10.578059 648.99 1592 1748 14160 -1789 -198 -21
18:02:10.578196 649.0 1588 1664 14348 -1743 -130 -20
18:02:10.585088 649.01 1560 1704 14300 -1601 -42 -25
18:02:10.586545 649.02 1596 1612 14196 -1590 -117 12
18:02:10.598256 649.03 1576 1540 14236 -1436 -134 -6
18:02:10.622752 649.04 1576 1652 14300 -1236 -79 -36
18:02:10.647113 649.05 1448 1468 14204 -1205 -21 24
18:02:10.647415 649.06 1592 1472 14420 -1327 -131 21
18:02:10.647729 649.07 1584 1500 14392 -1282 -90 9
18:02:10.665431 649.08 1624 1440 14300 -1201 -8 -20
18:02:10.686203 649.09 1664 1504 14228 -1214 -41 -14
18:02:10.687447 649.1 1544 1440 14360 -1367 2 -23
18:02:10.688690 649.11 1592 1416 14296 -1320 -12 -6
18:02:10.706006 649.12 1632 1416 14244 -1230 43 -45
18:02:10.711229 649.13 1656 1456 14392 -1197 -30 -8
18:02:10.718093 649.14 1652 1360 14196 -1182 -50 -17
18:02:10.738214 649.15 1596 1352 14408 -1108 -12 -9
18:02:10.747085 649.16 1584 1320 14148 -1054 -93 9
18:02:10.747232 649.17 1616 1332 14328 -890 12 19
18:02:10.755587 649.18 1680 1200 14392 -799 42 21
18:02:10.809161 649.19 1704 1276 14288 -702 73 -1
18:02:10.820334 649.2 1728 1248 14272 -575 102 -14
18:02:10.820503 649.21 1728 1240 14088 -628 49 7
18:02:10.820615 649.22 1616 1156 14144 -593 16 39
18:02:10.821077 649.23 1780 1200 14112 -333 72 27
18:02:10.824081 649.24 1708 1220 14084 -216 79 24
18:02:10.846698 649.25 1668 1176 14048 -8 115 26
18:02:10.846968 649.26 1808 1152 14260 189 239 6
18:02:10.853134 649.27 1712 1212 14264 352 363 -3
18:02:10.868405 649.28 1808 1200 14276 492 404 -24
18:02:10.880271 649.29 1700 1132 14272 622 384 -39
18:02:10.906897 649.3 1720 1220 14284 747 418 -34
18:02:10.915270 649.31 1724 1268 14400 924 467 -43
18:02:10.915416 649.32 1676 1252 14300 1074 558 -56
18:02:10.923052 649.33 1628 1436 14304 1082 554 -51
18:02:10.924609 649.34 1616 1364 14416 1040 562 -60
18:02:10.946980 649.35 1704 1384 14160 828 416 -27
18:02:10.967317 649.36 1692 1328 14164 661 303 -1
18:02:10.978821 649.37 1604 1372 14304 883 480 -37
18:02:10.979087 649.38 1632 1464 14428 1119 668 -73
18:02:10.979254 649.39 1556 1596 14540 1092 613 -67
18:02:10.980646 649.4 1500 1480 14332 1024 516 -80
18:02:11.038235 649.41 1628 1540 14204 973 449 -43
18:02:11.045524 649.42 1688 1508 14052 981 348 13
18:02:11.045773 649.43 1676 1576 14412 1259 500 -6
18:02:11.045956 649.44 1612 1592 14604 1353 726 -30
18:02:11.046152 649.45 1468 1820 14088 606 685 28
18:02:11.046381 649.46 1636 1480 13824 -303 131 124
18:02:11.059170 649.47 1808 1464 14624 786 614 -15
18:02:11.085262 649.48 1676 1732 14228 2010 327 -105
18:02:11.085381 649.49 1580 1756 13912 1168 20 -15
18:02:11.124017 649.5 1796 1544 14552 1527 560 -116
18:02:11.124874 649.51 1588 1884 14384 1868 926 -129
18:02:11.126196 649.52 1356 1824 13592 515 -59 87
18:02:11.152565 649.53 1796 1716 14108 799 399 49
18:02:11.152984 649.54 1696 1776 14500 1590 836 -75
18:02:11.153272 649.55 1632 1980 14604 1763 781 -115
18:02:11.153532 649.56 1512 2060 14520 1629 647 -67
18:02:11.153809 649.57 1468 2120 14360 1386 543 -26
18:02:11.175317 649.58 1424 2156 14328 1363 589 30
18:02:11.187553 649.59 1384 2128 14388 1371 542 26
18:02:11.187693 649.6 1460 2136 14376 1331 415 -5
18:02:11.191077 649.61 1448 2248 14240 1107 405 24
18:02:11.245839 649.62 1572 2228 13996 867 418 28
18:02:11.252880 649.63 1396 2132 14076 751 520 -1
18:02:11.253009 649.64 1572 2136 13856 1054 515 -37
18:02:11.253100 649.65 1576 2088 14168 1297 507 -12
18:02:11.253591 649.66 1560 2236 14208 1556 490 -30
18:02:11.256782 649.67 1484 2272 14188 1672 438 -18
18:02:11.259799 649.68 1508 2288 14424 1656 470 -61
18:02:11.284504 649.69 1504 2376 14308 1708 486 -42
18:02:11.342908 649.7 1532 2368 14268 1527 500 -17
18:02:11.353035 649.71 1460 2464 14152 1452 496 -50
18:02:11.353189 649.72 1456 2344 14204 1460 456 -7
18:02:11.353302 649.73 1480 2440 14124 1407 487 -31
18:02:11.353425 649.74 1432 2436 13940 1473 444 -43
18:02:11.353680 649.75 1492 2500 14040 1620 468 -34
18:02:11.358078 649.76 1444 2536 14048 2072 511 -69
18:02:11.360305 649.77 1372 2608 14160 2514 576 -75
18:02:11.387553 649.78 1368 2764 14064 2762 661 -176
18:02:11.387731 649.79 1376 2824 14340 2845 564 -107
18:02:11.411279 649.8 1348 2948 14280 2980 979 -141
18:02:11.420358 649.81 1216 3084 13900 2249 667 -74
18:02:11.420489 649.82 1420 2952 13956 2018 613 -79
18:02:11.420655 649.83 1300 3032 14288 2463 820 -132
18:02:11.434971 649.84 1320 3160 13860 2143 547 -121
18:02:11.459286 649.85 1356 3148 14056 2055 669 -160
18:02:11.460713 649.86 1288 3156 14348 2303 771 -173
18:02:11.484562 649.87 1276 3276 14292 2142 663 -132
18:02:11.484954 649.88 1308 3272 14172 1848 632 -151
18:02:11.485370 649.89 1304 3356 14120 1535 498 -95
18:02:11.490710 649.9 1124 3524 14088 1438 493 -101
18:02:11.518950 649.91 1324 3432 14212 1471 525 -134
18:02:11.520103 649.92 1232 3536 14172 1413 539 -163
18:02:11.521222 649.93 1288 3528 14188 1321 546 -166
18:02:11.556356 649.94 1248 3404 14104 1185 600 -145
18:02:11.557478 649.95 1232 3572 13952 1148 582 -137
18:02:11.558971 649.96 1192 3484 14004 1270 500 -101
18:02:11.577056 649.97 1184 3576 14068 1170 516 -98
18:02:11.584999 649.98 1236 3580 13972 1092 469 -114
18:02:11.618021 649.99 1244 3624 14056 1125 421 -83
18:02:11.618820 650.0 1284 3608 13956 1075 466 -107
18:02:11.619652 650.01 1252 3580 13912 1119 543 -108
18:02:11.627869 650.02 1124 3704 13988 1136 549 -80
18:02:11.651184 650.03 1176 3836 14032 915 462 -109
18:02:11.656609 650.04 1124 3776 13888 960 461 -82
18:02:11.673750 650.05 1140 3844 13848 853 489 -79
18:02:11.694189 650.06 1092 3816 14016 746 504 -65
18:02:11.695620 650.07 1024 3840 13960 784 447 -56
18:02:11.716605 650.08 1188 3896 14020 795 460 -45
18:02:11.716745 650.09 1100 3904 13864 706 471 -44
18:02:11.716843 650.1 1164 3900 13920 835 464 -50
18:02:11.716937 650.11 1184 4040 13968 800 429 -40
18:02:11.740367 650.12 1120 3960 13908 814 470 -33
18:02:11.752202 650.13 1076 3944 13916 701 482 -55
18:02:11.756673 650.14 1140 4020 13808 685 450 -44
18:02:11.759020 650.15 1224 4060 14008 666 460 -56
18:02:11.771596 650.16 1204 4004 14036 525 441 -45
18:02:11.785877 650.17 1160 4044 13876 527 458 -55
18:02:11.805401 650.18 1180 3972 13964 509 471 -79
18:02:11.821211 650.19 1028 4100 13940 526 486 -77
18:02:11.821344 650.2 980 4084 13880 530 465 -64
18:02:11.841555 650.21 1008 4048 14032 520 394 -66
18:02:11.855252 650.22 1088 4040 13972 449 414 -66
18:02:11.855396 650.23 1096 4092 13816 456 410 -47
18:02:11.855493 650.24 1064 4148 13800 420 381 -62
18:02:11.855584 650.25 1024 4176 13772 393 362 -68
18:02:11.876826 650.26 1016 4156 13780 394 363 -29
18:02:11.894077 650.27 976 4192 14008 393 363 -49
18:02:11.895182 650.28 1076 4156 13960 360 377 -73
18:02:11.896081 650.29 1044 4124 13708 358 413 -46
18:02:11.912981 650.3 992 4220 14024 348 360 -75
18:02:11.922039 650.31 972 4244 13900 321 378 -31
18:02:11.925435 650.32 1028 4248 13788 361 358 -41
18:02:11.941000 650.33 1064 4184 13844 357 366 -36
18:02:11.975659 650.34 1052 4252 13716 289 311 -40
18:02:11.988610 650.35 1100 4188 13972 359 383 -24
18:02:11.988847 650.36 1052 4340 13976 327 354 -21
18:02:11.989039 650.37 1056 4272 13860 153 326 -9
18:02:11.989227 650.38 1132 4252 13744 53 294 -17
18:02:12.010230 650.39 1024 4268 13888 -46 256 2
18:02:12.023329 650.4 1040 4344 13852 74 353 -29
18:02:12.025056 650.41 1096 4216 13904 377 523 -87
18:02:12.026176 650.42 1024 4392 13932 447 521 -113
18:02:12.030798 650.43 960 4384 13964 340 483 -86
18:02:12.045852 650.44 908 4312 13760 100 367 -44
18:02:12.075908 650.45 972 4320 13740 -17 301 -15
18:02:12.090245 650.46 988 4284 13996 10 174 16
18:02:12.092619 650.47 856 4360 13748 -398 130 103
18:02:12.094470 650.48 1036 4192 13396 -964 -119 159
18:02:12.108824 650.49 1276 4148 14308 132 463 -15
18:02:12.122740 650.5 1148 4524 14432 780 596 -154
18:02:12.130120 650.51 880 4492 14020 -80 -74 -7
18:02:12.141880 650.52 1080 4332 13604 -551 14 63
18:02:12.162177 650.53 912 4340 13704 -653 101 102
18:02:12.182798 650.54 824 4164 13428 -807 -103 187
18:02:12.193808 650.55 1148 4060 13624 -284 0 83
18:02:12.193946 650.56 1140 4328 13944 28 85 31
18:02:12.194644 650.57 1004 4288 14008 130 -84 20
18:02:12.195231 650.58 892 4396 14024 99 -17 76
18:02:12.213269 650.59 884 4364 14024 93 72 66
18:02:12.217925 650.6 956 4352 14040 79 53 51
18:02:12.230390 650.61 1144 4344 13876 0 112 57
18:02:12.242701 650.62 1012 4392 13824 -157 200 31
18:02:12.245207 650.63 1052 4404 13896 -190 275 26
18:02:12.248487 650.64 1056 4344 13672 -206 290 2
18:02:12.279620 650.65 952 4280 13728 -78 255 -21
18:02:12.325486 650.66 1100 4396 13688 -49 255 4
18:02:12.337276 650.67 1100 4340 13900 -127 236 30
18:02:12.337456 650.68 1104 4292 13944 -325 198 31
18:02:12.337598 650.69 1028 4256 14084 -541 159 59
18:02:12.337796 650.7 1020 4344 14096 -767 174 59
18:02:12.338074 650.71 1072 4320 13924 -1153 43 132
18:02:12.350855 650.72 904 4332 13928 -1454 -59 178
18:02:12.368830 650.73 1012 4316 14040 -1795 -182 266
18:02:12.368963 650.74 1108 4284 14128 -2265 -308 377
18:02:12.388989 650.75 1036 4300 14056 -2928 -507 458
18:02:12.394792 650.76 1064 4056 14036 -3328 -634 517
18:02:12.394941 650.77 1144 3952 13816 -3196 -674 496
18:02:12.410334 650.78 1068 3840 13740 -2743 -630 455
18:02:12.421992 650.79 1096 3748 13932 -2193 -438 336
18:02:12.440150 650.8 1172 3820 13864 -1734 -214 243
18:02:12.449477 650.81 1180 3728 13960 -1502 -58 162
18:02:12.449717 650.82 1284 3708 14088 -1453 58 107
18:02:12.472160 650.83 1204 3740 14240 -1271 401 88
18:02:12.477372 650.84 1128 3676 13816 -1825 36 187
18:02:12.477863 650.85 1148 3624 13720 -2334 -126 202
18:02:12.482117 650.86 1220 3508 13956 -1786 -55 118
18:02:12.506782 650.87 1220 3568 14224 -1358 -168 130
18:02:12.507501 650.88 1164 3564 14092 -1459 -194 147
18:02:12.531759 650.89 1248 3672 13980 -1592 -97 139
18:02:12.532623 650.9 1196 3608 14276 -1645 -60 144
18:02:12.533816 650.91 1212 3564 14184 -1750 -134 185
18:02:12.545846 650.92 1268 3400 14020 -1931 -256 193
18:02:12.557320 650.93 1424 3452 14132 -2037 -197 186
18:02:12.575117 650.94 1356 3404 13992 -2032 -146 181
18:02:12.589368 650.95 1228 3288 14112 -1956 -150 162
18:02:12.610265 650.96 1272 3324 14164 -1787 -80 127
18:02:12.610724 650.97 1176 3208 14196 -1863 -104 159
18:02:12.611274 650.98 1260 3124 14132 -1888 -51 127
18:02:12.612010 650.99 1352 3044 14088 -1728 -87 113
18:02:12.632721 651.0 1484 3096 14112 -1567 -61 94
18:02:12.667387 651.01 1324 3068 14112 -1552 -110 80
18:02:12.678685 651.02 1432 3008 14044 -1651 -84 110
18:02:12.679303 651.03 1368 3148 13920 -1621 -69 74
18:02:12.679733 651.04 1304 2944 14152 -1548 -116 97
18:02:12.685287 651.05 1260 2852 14076 -1492 -87 69
18:02:12.710860 651.06 1328 2912 14288 -1490 -89 75
18:02:12.712136 651.07 1432 2824 14056 -1514 -76 97
18:02:12.713274 651.08 1328 2848 14004 -1615 -78 93
18:02:12.714245 651.09 1360 2832 14076 -1620 -94 103
18:02:12.731735 651.1 1392 2844 14132 -1491 -86 96
18:02:12.745303 651.11 1300 2920 14136 -1497 -91 74
18:02:12.747149 651.12 1388 2756 14140 -1530 -90 86
18:02:12.771187 651.13 1468 2720 14156 -1475 -108 70
18:02:12.777357 651.14 1452 2680 14168 -1373 -51 94
18:02:12.777724 651.15 1456 2816 14248 -1403 -39 57
18:02:12.780649 651.16 1360 2680 14256 -1325 -18 81
18:02:12.834513 651.17 1384 2608 14312 -1403 -26 69
18:02:12.839054 651.18 1444 2596 14208 -1442 -65 76
18:02:12.839191 651.19 1360 2608 14072 -1486 -12 51
18:02:12.842875 651.2 1444 2588 14260 -1384 -71 73
18:02:12.844604 651.21 1472 2440 14192 -1277 29 28
18:02:12.865203 651.22 1440 2380 14236 -1266 48 28
18:02:12.874210 651.23 1440 2408 14184 -1389 -65 24
18:02:12.880119 651.24 1372 2372 14132 -1402 -67 38
18:02:12.881307 651.25 1528 2312 14116 -1380 -89 29
18:02:12.931061 651.26 1496 2376 14300 -1346 -88 22
18:02:12.938987 651.27 1516 2324 14188 -1324 -42 -12
18:02:12.939405 651.28 1580 2352 14064 -1289 -51 1
18:02:12.939766 651.29 1588 2340 14296 -1206 1 -6
18:02:12.940116 651.3 1552 2232 14260 -1307 12 -13
18:02:12.962766 651.31 1472 2136 14092 -1202 -55 6
18:02:12.976749 651.32 1468 2200 14200 -1192 5 8
18:02:12.977000 651.33 1512 2200 14360 -1158 -6 24
18:02:12.985672 651.34 1532 2164 14244 -1187 -16 28
18:02:13.008601 651.35 1476 2036 14236 -1163 -48 -2
18:02:13.008924 651.36 1564 1980 14232 -1147 -23 9
18:02:13.031358 651.37 1432 2116 14228 -1127 74 20
18:02:13.040368 651.38 1492 2104 14256 -1109 25 2
18:02:13.045120 651.39 1572 1980 14304 -1134 -2 12
18:02:13.046224 651.4 1516 2032 14364 -1087 37 34
18:02:13.065481 651.41 1572 1900 14320 -1047 27 -12
18:02:13.074676 651.42 1584 2096 14412 -1002 94 -15
18:02:13.074819 651.43 1628 1868 14212 -1006 134 -2
18:02:13.101844 651.44 1500 1928 14352 -1036 102 36
18:02:13.109715 651.45 1500 1904 14260 -1011 69 2
18:02:13.109856 651.46 1524 1860 14112 -1079 -4 0
18:02:13.120413 651.47 1552 1812 14024 -1125 -45 24
18:02:13.149489 651.48 1576 1696 14080 -1031 -37 78
18:02:13.149996 651.49 1680 1704 14496 -650 106 0
18:02:13.150413 651.5 1628 1756 14296 -378 141 -10
18:02:13.165430 651.51 1688 1852 14180 -376 147 3
18:02:13.177301 651.52 1536 1736 14184 -409 93 -14
18:02:13.178096 651.53 1560 1692 14136 -447 -14 15
18:02:13.216242 651.54 1748 1780 14420 -217 164 -17
18:02:13.223977 651.55 1660 1796 14400 -42 341 -32
18:02:13.224242 651.56 1516 1868 14132 -430 325 42
18:02:13.224714 651.57 1412 1872 13464 -1394 -87 125
18:02:13.239513 651.58 1896 1508 14496 -493 305 24
18:02:13.268664 651.59 1720 1668 14740 917 379 -108
18:02:13.279250 651.6 1576 1864 13772 -96 -319 43
18:02:13.279413 651.61 1808 1532 14436 304 322 -33
18:02:13.279531 651.62 1604 1788 14204 550 587 -59
18:02:13.286421 651.63 1492 1720 13684 -551 -205 131
18:02:13.312618 651.64 1812 1620 14076 168 288 51
18:02:13.312883 651.65 1752 1904 14348 866 700 -75
18:02:13.315085 651.66 1628 1896 14708 1008 583 -80
18:02:13.317952 651.67 1528 1944 14476 897 481 -43
18:02:13.338422 651.68 1552 2084 14340 644 464 0
18:02:13.345945 651.69 1516 1960 14212 650 496 8
18:02:13.366054 651.7 1536 1916 14212 557 373 17
18:02:13.399912 651.71 1424 1980 14220 398 245 55
18:02:13.408354 651.72 1572 1884 14252 386 261 32
18:02:13.408518 651.73 1620 1876 13900 278 309 50
18:02:13.408658 651.74 1668 1888 13976 293 356 34
18:02:13.408800 651.75 1512 1840 14140 746 375 -18
18:02:13.421197 651.76 1556 1936 14280 1019 288 -45
18:02:13.443518 651.77 1644 1924 14276 1156 333 -39
18:02:13.443656 651.78 1516 1916 14356 1158 337 -45
18:02:13.463448 651.79 1604 2044 14348 1037 405 -58
18:02:13.477813 651.8 1616 2116 14248 959 457 -88
18:02:13.501976 651.81 1628 2132 14232 901 490 -44
18:02:13.510927 651.82 1616 2016 14180 890 450 -24
18:02:13.511108 651.83 1588 2080 14124 829 385 -30
18:02:13.511241 651.84 1524 2044 14192 821 393 -12
18:02:13.515950 651.85 1552 2212 14124 859 430 -25
18:02:13.541652 651.86 1472 2280 14132 878 424 -26
18:02:13.570869 651.87 1484 2252 14016 1027 461 -50
18:02:13.582344 651.88 1488 2304 14076 1308 469 -36
18:02:13.582522 651.89 1528 2428 14284 1449 516 -82
18:02:13.608588 651.9 1484 2484 14556 1481 556 -84
18:02:13.617542 651.91 1300 2588 14200 1286 635 -32
18:02:13.617756 651.92 1428 2536 13900 537 396 49
18:02:13.619377 651.93 1432 2332 14008 905 506 -54
18:02:13.620338 651.94 1340 2492 14220 1211 508 -70
18:02:13.621668 651.95 1484 2424 14068 969 226 -32
18:02:13.622757 651.96 1468 2456 14056 1277 524 -94
18:02:13.645516 651.97 1416 2452 14200 1525 593 -76
18:02:13.645647 651.98 1464 2516 14176 1423 513 -64
18:02:13.650585 651.99 1484 2676 14060 1193 418 -40
18:02:13.678902 652.0 1312 2708 13912 1067 356 -70
18:02:13.682676 652.01 1552 2716 14268 1096 436 -79
18:02:13.682771 652.02 1612 2664 14220 1319 502 -107
18:02:13.700099 652.03 1352 2792 14420 1416 623 -148
18:02:13.709886 652.04 1412 2856 14116 1431 639 -116
18:02:13.710613 652.05 1356 2792 14024 1336 620 -117
18:02:13.718022 652.06 1460 2864 14024 1289 583 -73
18:02:13.733512 652.07 1340 2808 14244 1400 594 -131
18:02:13.749043 652.08 1384 2944 14200 1383 546 -98
18:02:13.766397 652.09 1368 2848 14036 1201 557 -91
18:02:13.783097 652.1 1372 2920 14144 1210 576 -95
18:02:13.783246 652.11 1304 2960 14260 1344 576 -113
18:02:13.783369 652.12 1264 3056 14216 1374 537 -102
18:02:13.798909 652.13 1432 3136 14104 1213 497 -76
18:02:13.814703 652.14 1352 3144 14072 1093 523 -98
18:02:13.817832 652.15 1388 3120 14040 1059 504 -50
18:02:13.819600 652.16 1340 3232 14144 1086 531 -40
18:02:13.834089 652.17 1336 3256 14088 1060 520 -70
18:02:13.855363 652.18 1200 3184 14040 1127 506 -54
18:02:13.857580 652.19 1232 3276 13852 1200 555 -77
18:02:13.879013 652.2 1268 3248 14096 1206 514 -70
18:02:13.879281 652.21 1272 3308 13972 1226 534 -101
18:02:13.900347 652.22 1224 3276 14176 1317 582 -101
18:02:13.915146 652.23 1256 3356 14112 1330 542 -113
18:02:13.915242 652.24 1200 3444 14112 1146 545 -108
18:02:13.915306 652.25 1232 3460 14092 1121 513 -96
18:02:13.930911 652.26 1360 3444 14092 1122 519 -100
18:02:13.949174 652.27 1260 3436 14132 1076 586 -126
18:02:13.953487 652.28 1236 3472 14064 1069 564 -114
18:02:13.956157 652.29 1188 3448 13984 1041 527 -108
18:02:13.967568 652.3 1324 3544 14016 1070 535 -113
18:02:13.979804 652.31 1188 3568 14008 1056 576 -107
18:02:13.988420 652.32 1136 3508 13924 996 501 -153
18:02:14.044945 652.33 1240 3628 14108 1081 496 -100
18:02:14.048339 652.34 1260 3744 14008 1016 480 -105
18:02:14.049584 652.35 1164 3636 14056 1019 470 -83
18:02:14.050584 652.36 1184 3592 13988 1020 468 -91
18:02:14.053210 652.37 1116 3704 14060 1045 437 -71
18:02:14.054685 652.38 1148 3708 14024 962 482 -98
18:02:14.073045 652.39 1072 3756 13844 971 452 -85
18:02:14.082413 652.4 1108 3880 14096 901 488 -79
18:02:14.108807 652.41 1120 3720 13904 908 430 -82
18:02:14.141028 652.42 1236 3832 13908 878 461 -98
18:02:14.145744 652.43 1296 3844 13996 897 473 -95
18:02:14.145873 652.44 1040 3944 14092 814 476 -90
18:02:14.145980 652.45 1220 3908 13892 686 449 -59
18:02:14.147073 652.46 1040 3844 13860 583 363 -54
18:02:14.154070 652.47 956 3836 13944 498 354 -19
18:02:14.170664 652.48 1144 3928 14108 697 467 -83
18:02:14.184113 652.49 1176 4052 13960 997 586 -146
18:02:14.205459 652.5 1112 4104 13936 1002 616 -110
18:02:14.214667 652.51 1076 4072 14124 768 501 -89
18:02:14.214882 652.52 1068 4080 13852 524 430 -101
18:02:14.215028 652.53 1096 4116 14064 514 397 -65
18:02:14.251656 652.54 916 4108 14072 459 420 -68
18:02:14.276869 652.55 868 4140 13792 -92 313 91
18:02:14.282686 652.56 1340 3968 13592 -444 166 65
18:02:14.282812 652.57 1380 4072 14304 574 575 -122
18:02:14.283151 652.58 1104 4284 14492 1271 562 -150
18:02:14.283389 652.59 976 4268 13808 65 -59 35
18:02:14.291511 652.6 1060 4208 13816 -11 308 14
18:02:14.294161 652.61 1028 4092 13536 -542 13 125
18:02:14.321279 652.62 1180 3896 13456 -356 12 111
18:02:14.325248 652.63 1224 4064 13720 225 217 45
18:02:14.328372 652.64 1160 4044 14088 538 132 -10
18:02:14.401104 652.65 1072 4220 14060 709 67 8
18:02:14.414280 652.66 1084 4204 14052 653 187 -21
18:02:14.414437 652.67 872 4244 13904 638 251 -14
18:02:14.414620 652.68 1028 4236 13888 559 195 -13
18:02:14.416355 652.69 1056 4356 14096 460 255 -41
18:02:14.417596 652.7 996 4332 13900 355 378 -61
18:02:14.418717 652.71 1124 4432 14016 271 431 -69
18:02:14.421897 652.72 1052 4344 13828 275 396 -45
18:02:14.438459 652.73 984 4228 13700 450 355 -52
18:02:14.446787 652.74 1164 4144 13872 536 295 -23
18:02:14.475994 652.75 1116 4268 13888 497 275 -44
18:02:14.481675 652.76 1000 4160 13952 436 249 -36
18:02:14.481814 652.77 1116 4348 13900 332 253 0
18:02:14.483056 652.78 1088 4256 13948 241 285 -15
18:02:14.485438 652.79 956 4292 13868 174 325 -10
18:02:14.511081 652.8 1004 4220 13860 144 353 -12
18:02:14.516837 652.81 1036 4336 13980 106 311 -13
18:02:14.589016 652.82 1064 4312 13968 59 310 -41
18:02:14.638446 652.83 1092 4280 13872 2 312 -34
18:02:14.647411 652.84 1164 4360 13884 -30 300 12
18:02:14.661815 652.85 1080 4400 13904 56 308 -4
18:02:14.684348 652.86 984 4432 13932 138 325 -15
18:02:14.684485 652.87 1044 4448 13824 161 370 -29
18:02:14.684590 652.88 972 4332 13884 251 358 -34
18:02:14.684819 652.89 936 4492 13736 163 301 -47
18:02:14.685044 652.9 1068 4504 14160 229 411 -65
18:02:14.709130 652.91 948 4464 13984 144 477 -24
18:02:14.718298 652.92 976 4328 13592 -463 117 80
18:02:14.718513 652.93 964 4420 13912 106 305 -39
18:02:14.718647 652.94 1064 4344 13824 24 250 5
18:02:14.718836 652.95 904 4420 13748 -145 259 7
18:02:14.719046 652.96 1076 4436 13852 -42 159 18
18:02:14.719187 652.97 1076 4428 14044 -12 113 -3
18:02:14.719322 652.98 1124 4420 13816 -87 191 13
18:02:14.719455 652.99 1008 4432 13900 -42 192 10
18:02:14.723071 653.0 1064 4496 13980 -77 176 14
18:02:14.778966 653.01 1000 4432 13836 -131 158 22
18:02:14.784158 653.02 1040 4476 13808 -175 222 34
18:02:14.784295 653.03 952 4360 13992 -166 203 41
18:02:14.784628 653.04 868 4364 14008 -104 218 -12
18:02:14.785741 653.05 972 4444 13848 -153 204 31
18:02:14.811789 653.06 972 4408 13836 -348 128 13
18:02:14.817774 653.07 1028 4404 13792 -399 145 57
18:02:14.817922 653.08 952 4416 13916 -391 187 14
18:02:14.829492 653.09 1036 4484 13928 -430 183 7
18:02:14.887281 653.1 968 4404 13800 -467 186 29
18:02:14.889165 653.11 1080 4368 13764 -582 151 38
18:02:14.889253 653.12 936 4364 13896 -697 176 41
18:02:14.889561 653.13 992 4352 14000 -819 144 81
18:02:14.890798 653.14 952 4368 14108 -800 147 56
18:02:14.893446 653.15 936 4372 14016 -810 156 72
18:02:14.938188 653.16 880 4372 13912 -886 90 65
18:02:14.950971 653.17 972 4396 13716 -1091 21 103
18:02:14.951248 653.18 1080 4212 13944 -1127 39 110
18:02:14.951454 653.19 960 4212 13988 -1121 53 98
18:02:14.951647 653.2 1080 4204 13868 -1199 -8 157
18:02:15.009700 653.21 1144 4228 13944 -1400 -22 182
18:02:15.017597 653.22 960 4176 13832 -1468 -39 148
18:02:15.017813 653.23 1100 4188 13900 -1409 -40 131
18:02:15.018191 653.24 1032 4144 13864 -1469 -28 129
18:02:15.018589 653.25 972 4124 13960 -1577 -5 127
18:02:15.040540 653.26 1028 3988 13820 -1612 -5 141
18:02:15.052572 653.27 1028 3996 14044 -1610 -101 181
18:02:15.052697 653.28 1112 3992 13996 -1598 -44 156
18:02:15.052784 653.29 1096 3900 13900 -1656 -85 164
18:02:15.052916 653.3 1156 3928 14028 -1653 -107 174
18:02:15.107254 653.31 1128 3904 13972 -1716 -122 194
18:02:15.152535 653.32 1144 3876 13852 -1826 -74 197
18:02:15.153793 653.33 1256 3748 13992 -1843 -107 190
18:02:15.156258 653.34 1120 3748 13840 -1781 -100 170
18:02:15.157576 653.35 1084 3748 13920 -1755 -125 159
18:02:15.219379 653.36 1180 3740 13952 -1670 -64 155
18:02:15.220546 653.37 1168 3676 13992 -1632 -35 162
18:02:15.225816 653.38 1052 3584 13992 -1611 -60 156
18:02:15.240959 653.39 1188 3684 14060 -1645 -28 169
18:02:15.253973 653.4 1080 3592 14040 -1659 -39 151
18:02:15.254267 653.41 1268 3576 14028 -1616 -49 140
18:02:15.254511 653.42 1208 3544 14000 -1700 -78 131
18:02:15.254746 653.43 1240 3476 14128 -1728 -89 152
18:02:15.255021 653.44 1180 3420 14060 -1878 -156 187
18:02:15.255260 653.45 1116 3352 14000 -1913 -210 172
18:02:15.255490 653.46 1212 3356 14268 -1209 65 76
18:02:15.256598 653.47 1160 3288 14148 -1322 -17 107
18:02:15.257844 653.48 1176 3208 13992 -1467 -122 124
18:02:15.508697 653.49 1168 3216 13988 -1517 -235 148
18:02:15.522617 653.5 1304 3152 14344 -1333 -147 139
18:02:15.523030 653.51 1120 3164 14392 -1624 -57 203
18:02:15.523245 653.52 1288 3220 13620 -2607 -301 267
18:02:15.523417 653.53 1624 2804 14244 -1955 -127 106
18:02:15.577183 653.54 1308 3056 14496 -703 42 29
18:02:15.586139 653.55 1148 3064 13824 -1579 -669 177
18:02:15.586344 653.56 1552 2836 14256 -1739 -334 107
18:02:15.586500 653.57 1208 2868 14120 -1325 29 98
18:02:15.586648 653.58 1244 2756 13632 -2339 -697 285
18:02:15.594320 653.59 1516 2404 14464 -888 1 30
18:02:15.596104 653.6 1540 2516 14208 -1029 12 43
18:02:15.598336 653.61 1456 2464 14288 -1042 54 55
18:02:15.600211 653.62 1488 2444 14220 -1119 -41 36
18:02:15.602596 653.63 1508 2280 14204 -1267 -11 32
18:02:15.623987 653.64 1552 2484 14112 -1231 -43 -12
18:02:15.624197 653.65 1448 2364 14304 -1153 91 -2
18:02:15.624371 653.66 1496 2352 14164 -1174 57 37
18:02:15.624542 653.67 1464 2320 14108 -1025 74 -9
18:02:15.624709 653.68 1452 2380 14168 -806 72 -2
18:02:15.632861 653.69 1456 2336 14356 -680 132 -4
18:02:15.654474 653.7 1572 2220 14384 -676 191 -9
18:02:15.654983 653.71 1536 2244 14400 -458 363 -13
18:02:15.662783 653.72 1320 2440 14008 -1038 41 70
18:02:15.663866 653.73 1564 2120 14116 -1033 15 69
18:02:15.680210 653.74 1536 2096 14084 -698 -93 32
18:02:15.708391 653.75 1672 2212 14356 -461 53 -32
18:02:15.723315 653.76 1588 2160 14160 -301 85 -14
18:02:15.723609 653.77 1584 2120 14044 -358 131 21
18:02:15.723936 653.78 1524 2188 14220 -269 148 8
18:02:15.747149 653.79 1512 2184 14188 -288 95 35
18:02:15.764120 653.8 1608 2152 14144 -108 134 -9
18:02:15.765558 653.81 1560 2184 14232 -35 169 0
18:02:15.766689 653.82 1604 2108 14348 69 265 -21
18:02:15.813479 653.83 1568 2148 14296 160 353 -18
18:02:15.820860 653.84 1496 2092 14216 112 336 3
18:02:15.821081 653.85 1508 2124 14304 160 355 -11
18:02:15.833533 653.86 1556 2176 14280 296 408 -37
18:02:15.865459 653.87 1480 2160 14200 324 365 -47
18:02:15.867471 653.88 1540 2148 14256 309 318 -37
18:02:15.869683 653.89 1428 2144 14132 380 387 -43
18:02:15.888980 653.9 1640 2128 14020 605 397 -56
18:02:15.889115 653.91 1436 2176 14100 744 411 -53
18:02:15.913803 653.92 1544 2292 14184 782 379 -37
18:02:15.921052 653.93 1484 2280 14296 782 446 -45
18:02:15.921202 653.94 1428 2356 14268 721 480 -15
18:02:15.921316 653.95 1492 2376 14252 706 477 -29
18:02:15.921424 653.96 1504 2388 14192 697 486 -25
18:02:15.921529 653.97 1416 2376 14236 760 438 -33
18:02:15.991524 653.98 1436 2420 14208 799 443 -43
18:02:15.992582 653.99 1396 2372 14248 811 410 -25
18:02:15.993838 654.0 1408 2336 14264 860 408 -38
18:02:15.997017 654.01 1528 2480 14208 868 483 -54
18:02:15.999649 654.02 1412 2456 14092 867 488 -48
18:02:16.000556 654.03 1460 2480 14228 851 468 -47
18:02:16.002281 654.04 1444 2516 14208 838 452 -57
18:02:16.022387 654.05 1420 2492 14176 996 500 -82
18:02:16.022511 654.06 1468 2548 14180 1130 529 -75
18:02:16.052225 654.07 1384 2624 14132 1197 571 -63
18:02:16.056817 654.08 1440 2604 14144 1244 528 -60
18:02:16.057058 654.09 1356 2680 14036 1270 514 -74
18:02:16.057260 654.1 1424 2740 14184 1248 527 -69
18:02:16.078203 654.11 1404 2612 14152 1181 479 -79
18:02:16.088093 654.12 1320 2780 14148 1179 493 -81
18:02:16.098125 654.13 1428 2792 14164 1117 519 -80
18:02:16.100271 654.14 1344 2896 14260 1093 474 -69
18:02:16.148571 654.15 1396 2860 14160 1110 478 -69
18:02:16.155667 654.16 1308 2900 14220 1056 466 -33
18:02:16.155779 654.17 1336 2848 14144 1094 453 -57
18:02:16.155856 654.18 1344 2964 14100 1056 486 -63
18:02:16.164102 654.19 1264 2936 14124 1013 466 -62
18:02:16.222862 654.2 1372 2976 14116 1036 501 -71
18:02:16.231169 654.21 1260 2948 14248 1090 575 -95
18:02:16.231270 654.22 1304 2976 14196 1116 590 -99
18:02:16.231689 654.23 1200 3096 13992 1012 587 -88
18:02:16.232069 654.24 1200 3012 14000 881 582 -106
18:02:16.234965 654.25 1284 3104 13944 856 468 -75
18:02:16.237001 654.26 1408 3000 13988 1041 521 -128
18:02:16.257689 654.27 1316 3036 14228 1425 690 -117
18:02:16.257836 654.28 1344 3196 14224 1733 731 -182
18:02:16.283751 654.29 1248 3320 14224 1651 689 -174
18:02:16.292810 654.3 1160 3312 13924 1381 599 -114
18:02:16.346239 654.31 1216 3316 13944 1285 489 -86
18:02:16.357709 654.32 1220 3336 14056 1404 452 -90
18:02:16.357962 654.33 1160 3376 14248 1288 441 -47
18:02:16.358204 654.34 1068 3404 13720 375 362 73
18:02:16.358432 654.35 1412 3216 13960 506 374 -44
18:02:16.358658 654.36 1276 3488 14488 2009 678 -198
18:02:16.358935 654.37 1056 3680 13956 943 147 -27
18:02:16.359096 654.38 1296 3492 14200 752 518 -76
18:02:16.424087 654.39 1060 3496 13836 404 330 24
18:02:16.426545 654.4 1140 3488 13408 -172 -21 117
18:02:16.427792 654.41 1320 3316 13836 836 377 -43
18:02:16.430164 654.42 1172 3508 14224 1408 358 -101
18:02:16.432163 654.43 1252 3600 14348 1579 285 -105
18:02:16.433431 654.44 1200 3616 14168 1558 319 -73
18:02:16.434598 654.45 1128 3744 14084 1459 442 -88
18:02:16.451960 654.46 1048 3824 14052 1345 412 -95
18:02:16.460819 654.47 1148 3820 14112 1073 341 -48
18:02:16.485922 654.48 1128 3828 14124 847 459 -45
18:02:16.531114 654.49 1152 3868 13980 695 415 -66
18:02:16.583025 654.5 1136 3784 13900 658 424 -51
18:02:16.590730 654.51 1180 3744 13788 756 417 -65
18:02:16.590881 654.52 1204 3708 13924 981 413 -65
18:02:16.591081 654.53 1168 3820 13992 1149 392 -70
18:02:16.591303 654.54 1176 3864 14088 1019 320 -43
18:02:16.591521 654.55 1168 3960 14152 909 312 -86
18:02:16.595424 654.56 1192 3928 14028 766 375 -53
18:02:16.597413 654.57 1192 3960 14008 635 430 -49
18:02:16.598534 654.58 1164 4040 13932 638 434 -45
18:02:16.599790 654.59 1160 3968 13916 544 395 -58
18:02:16.605320 654.6 1220 4124 13944 536 391 -58
18:02:16.628236 654.61 1136 3968 13996 465 395 -74
18:02:16.628464 654.62 1080 3944 13880 495 409 -80
18:02:16.628618 654.63 1144 4180 14056 511 433 -29
18:02:16.628766 654.64 1060 4104 13984 571 436 -59
18:02:16.628909 654.65 1000 4072 14016 670 462 -65
18:02:16.647159 654.66 976 4212 13936 704 427 -58
18:02:16.662140 654.67 1088 4080 13956 664 359 -64
18:02:16.668164 654.68 1172 4184 14076 758 485 -97
18:02:16.669634 654.69 1044 4216 14064 757 677 -72
18:02:16.690895 654.7 1080 4136 13804 230 360 -11
18:02:16.694728 654.71 1016 4084 13608 46 371 -9
18:02:16.703328 654.72 1164 4168 13844 370 377 -71
18:02:16.717847 654.73 1076 4220 14036 617 422 -91
18:02:16.725631 654.74 1140 4196 13828 522 351 -93
18:02:16.725820 654.75 1104 4252 13836 296 342 -12
18:02:16.753324 654.76 1072 4244 13692 280 285 -7
18:02:16.762092 654.77 1072 4212 13852 328 215 -8
18:02:16.763263 654.78 996 4280 13992 313 205 -21
18:02:16.787809 654.79 996 4292 14056 274 259 -4
18:02:16.793856 654.8 1052 4308 13860 310 304 -33
18:02:16.802825 654.81 1068 4324 13920 335 305 -48
18:02:16.805032 654.82 1140 4236 14080 227 285 -19
18:02:16.828353 654.83 1056 4320 13828 166 310 -9
18:02:16.828763 654.84 1064 4328 13896 173 292 -20
18:02:16.830522 654.85 1028 4216 13924 282 314 -36
18:02:16.847876 654.86 1068 4316 13824 201 305 -39
18:02:16.860666 654.87 932 4312 13792 119 281 -30
18:02:16.868099 654.88 1060 4368 13796 145 358 -57
18:02:16.885368 654.89 892 4280 13924 138 401 -67
18:02:16.897584 654.9 912 4336 13788 139 359 -34
18:02:16.908899 654.91 896 4268 13824 77 321 -30
18:02:16.927667 654.92 1036 4356 13904 28 313 -12
18:02:16.927790 654.93 1004 4292 13780 30 265 -15
18:02:16.954056 654.94 1052 4388 13956 24 287 5
18:02:16.963251 654.95 1024 4392 13856 63 275 -7
18:02:16.972102 654.96 1044 4496 13980 41 277 -10
18:02:16.997640 654.97 952 4424 13920 6 266 -7
18:02:16.997778 654.98 956 4376 13772 37 291 6
18:02:16.997950 654.99 984 4336 13900 34 316 -23
18:02:16.998120 655.0 1048 4416 13972 16 283 -23
18:02:17.003473 655.01 1112 4448 13988 -2 298 -5
18:02:17.031969 655.02 1012 4440 13904 -52 281 13
18:02:17.033027 655.03 932 4400 13880 -72 272 -3
18:02:17.034265 655.04 896 4368 13880 -95 257 -25
18:02:17.040854 655.05 1008 4408 13880 -84 277 5
18:02:17.065286 655.06 1064 4308 13756 -92 278 -7
18:02:17.067141 655.07 988 4372 13992 -80 299 -2
18:02:17.091302 655.08 968 4396 13816 -137 275 -7
18:02:17.094866 655.09 1036 4476 13852 -113 281 -20
18:02:17.094991 655.1 1020 4376 13840 -150 244 13
18:02:17.128641 655.11 968 4404 13780 -131 268 -24
18:02:17.129892 655.12 1052 4396 13900 -164 267 -33
18:02:17.131004 655.13 1024 4356 13864 -172 247 -32
18:02:17.202490 655.14 956 4396 13792 -178 210 0
18:02:17.206554 655.15 1032 4420 13784 -189 241 -25
18:02:17.228407 655.16 968 4404 13788 -169 228 5
18:02:17.228504 655.17 1036 4480 13864 -194 242 -7
18:02:17.228569 655.18 908 4376 13840 -206 231 5
18:02:17.228631 655.19 964 4408 13980 -225 240 3
18:02:17.228691 655.2 892 4408 13888 -286 228 22
18:02:17.228752 655.21 968 4284 13916 -328 220 8
18:02:17.228812 655.22 1064 4364 13872 -342 195 43
18:02:17.294876 655.23 1120 4340 13896 -374 198 -6
18:02:17.296085 655.24 992 4372 13672 -393 242 22
18:02:17.297185 655.25 936 4400 13828 -432 214 38
18:02:17.298690 655.26 948 4400 13664 -440 177 23
18:02:17.303526 655.27 988 4368 13888 -510 191 31
18:02:17.309823 655.28 976 4308 13816 -556 152 55
18:02:17.335029 655.29 912 4356 13864 -630 196 45
18:02:17.335195 655.3 920 4392 13828 -639 219 27
18:02:17.335381 655.31 872 4292 13948 -741 222 19
18:02:17.335602 655.32 916 4280 13860 -847 136 57
18:02:17.351747 655.33 956 4332 13916 -1080 95 101
18:02:17.362886 655.34 1092 4128 13852 -1331 36 104
18:02:17.386821 655.35 976 4320 13936 -1463 -64 146
18:02:17.422536 655.36 1116 4108 13808 -1400 4 116
18:02:17.431739 655.37 1008 4176 13992 -1130 163 76
18:02:17.431918 655.38 1040 4156 14048 -1017 174 70
18:02:17.432151 655.39 944 4180 14088 -1065 128 42
18:02:17.432410 655.4 984 4160 13976 -1314 31 81
18:02:17.432662 655.41 996 4092 13792 -1703 -115 177
18:02:17.440228 655.42 1040 4004 14080 -1783 -148 176
18:02:17.442428 655.43 988 3972 13972 -2014 -149 254
18:02:17.466138 655.44 964 3972 13304 -2915 -464 378
18:02:17.466355 655.45 1272 3748 14256 -2334 -142 211
18:02:17.490312 655.46 1112 3928 14424 -952 86 86
18:02:17.498923 655.47 932 3924 14020 -1702 -489 211
18:02:17.499060 655.48 1168 3648 13932 -2220 -371 233
18:02:17.499164 655.49 1076 3592 13896 -2100 -117 256
18:02:17.505768 655.5 972 3420 13460 -2667 -660 352
18:02:17.521199 655.51 1332 3320 13864 -1895 -294 263
18:02:17.537709 655.52 1236 3632 14248 -915 -36 118
18:02:17.539623 655.53 1164 3652 14332 -941 -225 116
18:02:17.560926 655.54 1072 3744 14328 -1096 -250 177
18:02:17.564642 655.55 1036 3628 14096 -1164 -30 134
18:02:17.589522 655.56 1000 3540 14172 -1280 -75 202
18:02:17.598822 655.57 1072 3524 14108 -1498 -130 212
18:02:17.605016 655.58 1248 3664 14136 -1753 -70 175
18:02:17.606502 655.59 1148 3528 14080 -2070 -99 201
18:02:17.618023 655.6 1192 3200 13924 -2220 -194 224
18:02:17.649814 655.61 1248 3204 13736 -1866 -214 205
18:02:17.669702 655.62 1196 3192 13920 -1460 -197 168
18:02:17.669847 655.63 1324 3112 14292 -1112 -92 125
18:02:17.669951 655.64 1244 3232 14344 -971 -67 105
18:02:17.687019 655.65 1188 3208 14140 -1103 -59 98
18:02:17.708794 655.66 1272 3152 14104 -1220 -33 119
18:02:17.710777 655.67 1212 3200 14164 -1323 -69 130
18:02:17.733121 655.68 1288 3148 14160 -1393 -26 133
18:02:17.733311 655.69 1268 3016 13924 -1437 -101 129
18:02:17.733614 655.7 1372 3096 14116 -1538 -137 133
18:02:17.740713 655.71 1352 3136 14204 -1560 -148 123
18:02:17.742225 655.72 1392 3084 14044 -1521 -88 87
18:02:17.758301 655.73 1348 2976 14096 -1450 -36 67
18:02:17.766811 655.74 1340 2960 14088 -1393 -11 81
18:02:17.791149 655.75 1404 3044 14116 -1321 -8 65
18:02:17.803594 655.76 1292 2976 14116 -1342 -28 93
18:02:17.804817 655.77 1256 2872 14180 -1137 19 47
18:02:17.805939 655.78 1380 2880 14132 -1104 -15 27
18:02:17.825653 655.79 1288 2796 14260 -921 214 40
18:02:17.836562 655.8 1312 2836 14172 -1332 -56 117
18:02:17.837495 655.81 1396 2732 13896 -1643 -168 108
18:02:17.838606 655.82 1396 2648 14132 -1226 -78 42
18:02:17.860238 655.83 1284 2716 14132 -913 -76 29
18:02:17.864021 655.84 1380 2688 14256 -980 -38 71
18:02:17.872884 655.85 1368 2740 14216 -1060 16 45
18:02:17.898399 655.86 1392 2724 14288 -979 -25 49
18:02:17.902292 655.87 1356 2744 14244 -1030 -57 24
18:02:17.924120 655.88 1544 2752 14284 -1140 -118 43
18:02:17.932282 655.89 1480 2620 14288 -1182 -43 38
18:02:17.932493 655.9 1324 2580 14176 -1230 -3 12
18:02:17.933102 655.91 1448 2568 14168 -1189 22 15
18:02:17.958150 655.92 1312 2472 14148 -1180 49 19
18:02:17.969908 655.93 1336 2588 14236 -1259 46 44
18:02:17.999806 655.94 1468 2420 14240 -1340 -37 27
18:02:18.001014 655.95 1576 2360 14056 -1262 15 36
18:02:18.002184 655.96 1412 2484 14248 -1205 -32 19
18:02:18.058871 655.97 1268 2436 14192 -1235 -60 24
18:02:18.066212 655.98 1452 2392 14088 -1297 -75 57
18:02:18.066335 655.99 1460 2320 14124 -1166 -30 17
18:02:18.066472 656.0 1504 2344 14164 -1043 -9 49
18:02:18.066565 656.01 1440 2256 14284 -947 60 13
18:02:18.066657 656.02 1452 2348 14212 -1095 39 36
18:02:18.066748 656.03 1456 2248 14228 -1166 56 58
18:02:18.077855 656.04 1552 2272 14184 -1102 81 20
18:02:18.100354 656.05 1552 2316 14148 -1071 47 43
18:02:18.100718 656.06 1412 2208 14244 -1068 46 39
18:02:18.120414 656.07 1408 2256 14104 -952 86 17
18:02:18.144107 656.08 1456 2264 14316 -835 85 40
18:02:18.145254 656.09 1520 2192 14152 -798 80 32
18:02:18.146108 656.1 1480 2160 14132 -762 110 27
18:02:18.149146 656.11 1540 2092 14304 -677 80 31
18:02:18.192191 656.12 1576 2248 14160 -554 145 33
18:02:18.200849 656.13 1440 2152 14296 -470 139 27
18:02:18.200984 656.14 1408 1980 14164 -398 185 10
18:02:18.201088 656.15 1520 2164 14140 -244 247 19
18:02:18.201287 656.16 1504 2084 14156 -193 208 46
18:02:18.212931 656.17 1496 2116 14296 -131 234 9
18:02:18.235229 656.18 1564 2076 14132 -92 210 39
18:02:18.235448 656.19 1528 2100 14024 5 247 15
18:02:18.237404 656.2 1484 2080 14240 95 240 5
18:02:18.260727 656.21 1604 2108 14216 148 264 3
18:02:18.269854 656.22 1496 2044 14204 256 290 -18
18:02:18.272641 656.23 1520 2184 14284 329 317 -22
18:02:18.275014 656.24 1544 2136 14244 374 327 -27
18:02:18.295622 656.25 1572 2120 14248 380 316 -33
18:02:18.305685 656.26 1516 2180 14352 450 363 -46
18:02:18.370991 656.27 1448 2224 14332 426 344 -67
18:02:18.374218 656.28 1408 2232 14228 492 360 -44
18:02:18.376818 656.29 1464 2156 14084 512 350 -11
18:02:18.377795 656.3 1432 2220 14268 551 396 -11
18:02:18.380541 656.31 1496 2292 14208 713 467 -34
18:02:18.402153 656.32 1392 2396 14172 682 472 -51
18:02:18.402299 656.33 1420 2252 14196 680 440 -49
18:02:18.402542 656.34 1408 2412 14228 733 450 -60
18:02:18.402819 656.35 1468 2344 14164 707 460 -13
18:02:18.424264 656.36 1468 2248 14232 671 391 -53
18:02:18.434292 656.37 1416 2304 14076 705 408 -45
18:02:18.434409 656.38 1512 2332 14248 799 469 -43
18:02:18.434483 656.39 1492 2356 14284 1161 626 -92
18:02:18.435534 656.4 1484 2540 14400 1423 685 -76
18:02:18.457761 656.41 1356 2508 14188 1321 566 -110
18:02:18.469050 656.42 1424 2516 14048 1267 461 -58
18:02:18.493950 656.43 1284 2508 14168 1176 393 -59
18:02:18.501165 656.44 1444 2520 14196 1313 394 -27
18:02:18.501284 656.45 1340 2588 14392 1419 566 -63
18:02:18.516734 656.46 1360 2648 14168 672 615 45
18:02:18.534120 656.47 1368 2768 13648 -18 270 84
18:02:18.534341 656.48 1480 2464 14460 935 636 -89
18:02:18.561069 656.49 1532 2704 14296 2060 612 -172
18:02:18.569291 656.5 1232 2856 14060 1380 267 -99
18:02:18.576263 656.51 1456 2664 14320 1262 521 -109
18:02:18.577379 656.52 1256 2780 14296 1404 845 -110
18:02:18.578358 656.53 1204 2804 13456 -25 -88 121
18:02:18.624063 656.54 1420 2664 13980 797 498 -12
18:02:18.634773 656.55 1428 2732 14204 1659 652 -99
18:02:18.634923 656.56 1144 2960 14492 1893 584 -142
18:02:18.635043 656.57 1172 2964 14280 1818 558 -102
18:02:18.635227 656.58 1216 3004 14228 1742 655 -88
18:02:18.635453 656.59 1268 3140 14160 1694 657 -66
18:02:18.646030 656.6 1132 3216 14232 1500 539 -67
18:02:18.700815 656.61 1336 3284 14212 1311 487 -53
18:02:18.703656 656.62 1240 3216 14096 1087 526 -62
18:02:18.706141 656.63 1260 3200 14032 973 520 -27
18:02:18.707255 656.64 1328 3004 13788 1133 518 -76
18:02:18.708501 656.65 1256 3156 13884 1412 512 -86
18:02:18.711797 656.66 1200 3156 14168 1728 435 -101
18:02:18.713946 656.67 1308 3264 14148 1701 437 -94
18:02:18.730251 656.68 1236 3188 14328 1682 466 -76
18:02:18.737953 656.69 1236 3284 14260 1526 517 -109
18:02:18.743558 656.7 1128 3428 14060 1398 543 -111
18:02:18.757192 656.71 1264 3432 13892 1200 594 -103
18:02:18.775106 656.72 1264 3440 13956 1055 509 -78
18:02:18.776624 656.73 1104 3604 14028 1001 472 -115
18:02:18.793493 656.74 1196 3524 14040 904 427 -70
18:02:18.805241 656.75 1072 3548 13940 849 476 -84
18:02:18.807054 656.76 1116 3612 14056 934 433 -65
18:02:18.810561 656.77 1144 3644 13932 1046 456 -89
18:02:18.826411 656.78 1088 3668 14028 1198 505 -95
18:02:18.871765 656.79 1112 3728 14196 1382 448 -91
18:02:18.872942 656.8 1208 3792 14300 1323 434 -132
18:02:18.874690 656.81 1068 3684 14256 1433 784 -142
18:02:18.876700 656.82 1088 3796 13888 891 529 -57
18:02:18.893142 656.83 1140 3752 13756 540 532 -72
18:02:18.905818 656.84 1076 3696 13788 614 479 -59
18:02:18.910061 656.85 1048 3804 14012 745 398 -112
18:02:18.912357 656.86 1132 3760 14048 1022 469 -114
18:02:18.927604 656.87 1088 3856 13992 871 415 -103
18:02:18.959461 656.88 1020 3892 13968 780 383 -53
18:02:18.971720 656.89 1084 3828 14004 757 317 -52
18:02:18.971891 656.9 1084 3948 14008 702 266 -56
18:02:19.031285 656.91 1112 3952 14148 704 302 -58
18:02:19.038567 656.92 1108 3952 14028 711 316 -57
18:02:19.038713 656.93 1120 4004 14092 774 350 -75
18:02:19.038923 656.94 1024 4028 13872 720 418 -79
18:02:19.039197 656.95 988 3916 14004 631 401 -72
18:02:19.039464 656.96 1076 3920 13788 564 403 -63
18:02:19.039725 656.97 1056 3916 13936 588 458 -48
18:02:19.039983 656.98 1064 4112 13876 629 450 -86
18:02:19.043280 656.99 1096 4088 13884 500 379 -57
18:02:19.071459 657.0 1076 4008 13876 424 367 -62
18:02:19.079992 657.01 1116 3936 13864 515 392 -70
18:02:19.080513 657.02 1024 4012 13920 561 404 -93
18:02:19.081553 657.03 964 4100 13992 596 452 -77
18:02:19.100327 657.04 960 4088 13844 523 375 -44
18:02:19.114527 657.05 948 4232 13964 437 387 -36
18:02:19.114978 657.06 992 4172 13960 374 363 -26
18:02:19.129218 657.07 1080 4228 13876 296 346 -1
18:02:19.148558 657.08 1000 4252 13936 343 343 -51
18:02:19.158506 657.09 1120 4212 13952 396 352 -27
18:02:19.158642 657.1 1000 4212 13788 346 318 -18
18:02:19.163702 657.11 1008 4268 13968 359 341 -47
18:02:19.187656 657.12 928 4192 13912 382 339 -45
18:02:19.213653 657.13 1032 4208 14012 415 362 -63
18:02:19.225929 657.14 1068 4192 13876 366 367 -17
18:02:19.226080 657.15 1016 4208 13908 315 347 -41
18:02:19.226179 657.16 952 4132 13776 260 358 -48
18:02:19.226786 657.17 988 4216 13884 256 360 -54
18:02:19.250709 657.18 936 4236 13828 254 322 -44
18:02:19.261410 657.19 1028 4304 13848 182 336 -57
18:02:19.261575 657.2 1048 4220 13936 196 346 -39
18:02:19.269389 657.21 956 4232 13832 181 348 -29
18:02:19.295431 657.22 996 4348 13952 164 295 -54
18:02:19.295617 657.23 1044 4412 13916 182 322 -39
18:02:19.328812 657.24 920 4336 13876 142 345 -57
18:02:19.329783 657.25 896 4276 13856 160 316 -27
18:02:19.331604 657.26 952 4324 13988 143 311 -34
18:02:19.333757 657.27 900 4268 13944 97 322 -39
18:02:19.350343 657.28 1044 4300 13884 114 296 -29
18:02:19.359529 657.29 1044 4356 13928 84 335 -21
18:02:19.369041 657.3 888 4268 13704 102 316 -26
18:02:19.395035 657.31 924 4372 13728 73 337 -23
18:02:19.395230 657.32 972 4304 13864 55 303 -19
18:02:19.413501 657.33 960 4340 13712 61 319 -28
18:02:19.423646 657.34 980 4348 13768 61 340 -23
18:02:19.423905 657.35 964 4364 13932 41 284 -24
18:02:19.427771 657.36 844 4368 13852 32 343 -11
18:02:19.429758 657.37 924 4320 13788 15 310 -37
18:02:19.443423 657.38 876 4292 13772 -9 324 12
18:02:19.465221 657.39 1000 4388 13840 19 310 -26
18:02:19.466231 657.4 884 4384 13764 23 293 -15
18:02:19.483556 657.41 964 4336 13924 18 308 -12
18:02:19.492931 657.42 948 4380 13868 24 293 -11
18:02:19.503211 657.43 912 4464 13776 17 327 -39
18:02:19.530966 657.44 944 4464 13812 -116 234 -19
18:02:19.531164 657.45 868 4408 13872 -213 242 -4
18:02:19.531496 657.46 972 4308 13832 -292 169 38
18:02:19.548966 657.47 916 4248 13700 -171 264 -19
18:02:19.563108 657.48 968 4388 13972 49 427 -48
18:02:19.563288 657.49 844 4468 13844 88 412 -50
18:02:19.564405 657.5 872 4468 13940 -25 331 -55
18:02:19.586778 657.51 792 4380 13744 -243 269 -29
18:02:19.599353 657.52 908 4412 13836 -332 221 0
18:02:19.600213 657.53 936 4452 13936 -194 180 19
18:02:19.638935 657.54 868 4408 13768 -364 91 48
18:02:19.647558 657.55 828 4376 13484 -963 26 127
18:02:19.650144 657.56 1116 4236 13848 -805 98 87
18:02:19.651754 657.57 1212 4364 14324 321 547 -76
18:02:19.653075 657.58 844 4616 13976 -57 -20 6
18:02:19.658543 657.59 948 4344 13852 -532 -92 93
18:02:19.683817 657.6 884 4460 13840 -562 179 81
18:02:19.684618 657.61 768 4212 13508 -1144 -77 166
18:02:19.722713 657.62 884 4096 13568 -798 -142 142
18:02:19.730208 657.63 1064 4252 13776 -308 103 72
18:02:19.791265 657.64 984 4328 14096 -120 -34 63
18:02:19.792370 657.65 900 4332 14100 -60 -95 65
18:02:19.793506 657.66 960 4412 13920 -219 18 80
18:02:19.794725 657.67 784 4404 14000 -187 56 55
18:02:19.795838 657.68 920 4388 14236 -288 55 71
18:02:19.801779 657.69 960 4424 13984 -425 93 57
18:02:19.811148 657.7 1024 4456 13836 -619 119 59
18:02:19.831666 657.71 812 4244 13788 -638 134 55
18:02:19.831788 657.72 904 4296 13828 -590 146 52
18:02:19.831860 657.73 1016 4284 13844 -515 109 52
18:02:19.831929 657.74 968 4200 14016 -570 98 42
18:02:19.845782 657.75 1004 4292 14000 -736 31 82
18:02:19.859866 657.76 1044 4132 13964 -893 -3 102
18:02:19.860086 657.77 1044 4096 13952 -1036 -9 66
18:02:19.860840 657.78 980 4252 13976 -1209 43 151
18:02:19.882243 657.79 1024 4076 14052 -1402 2 148
18:02:19.892836 657.8 988 4188 13988 -1506 -48 173
18:02:19.900151 657.81 1076 4096 13876 -1711 -56 161
18:02:19.901887 657.82 1104 4172 13916 -1808 -167 180
18:02:19.956819 657.83 976 4012 13960 -1870 -147 174
18:02:19.966171 657.84 1040 3868 13896 -1885 -76 209
18:02:19.966322 657.85 1084 3976 13836 -1729 -160 200
18:02:20.019308 657.86 1048 3908 13856 -1631 -69 183
18:02:20.030110 657.87 1060 3880 14032 -1486 26 162
18:02:20.030292 657.88 1056 3812 13940 -1411 -6 137
18:02:20.030433 657.89 1072 3864 13964 -1582 -119 110
18:02:20.030566 657.9 1076 3776 14260 -1333 231 106
18:02:20.030698 657.91 964 3840 13860 -1668 -60 203
18:02:20.030831 657.92 1124 3524 13644 -2208 -210 207
18:02:20.030973 657.93 1116 3644 13920 -1743 -69 183
18:02:20.034083 657.94 1084 3680 14148 -1253 -53 120
18:02:20.057801 657.95 1040 3592 14076 -1444 -146 122
18:02:20.087052 657.96 1244 3536 13872 -1612 -102 157
18:02:20.097777 657.97 1108 3640 13928 -1611 -92 106
18:02:20.097882 657.98 1064 3572 14156 -1553 -94 159
18:02:20.097950 657.99 1204 3508 14104 -1753 -159 139
18:02:20.121636 658.0 1240 3436 14188 -1893 -117 151
18:02:20.129023 658.01 1140 3472 14224 -1830 -75 141
18:02:20.129227 658.02 1180 3456 13980 -1982 -201 169
18:02:20.153400 658.03 1228 3248 14004 -1914 -179 162
18:02:20.164225 658.04 1112 3248 13968 -1996 -225 211
18:02:20.164472 658.05 1128 3120 14088 -1996 -209 184
18:02:20.164629 658.06 1224 3152 14016 -1863 -198 180
18:02:20.207038 658.07 1248 3096 14156 -1712 -142 138
18:02:20.231404 658.08 1228 3144 14040 -1786 -136 125
18:02:20.231607 658.09 1096 3176 14168 -1832 -171 109
18:02:20.231749 658.1 1208 3020 14012 -1828 -228 130
18:02:20.231884 658.11 1308 2968 14068 -1798 -215 150
18:02:20.232017 658.12 1236 2940 14080 -1708 -185 91
18:02:20.232150 658.13 1312 2828 14228 -1606 -127 84
18:02:20.235526 658.14 1404 2864 14192 -1628 -127 113
18:02:20.254644 658.15 1332 2908 14224 -1570 -79 96
18:02:20.306495 658.16 1292 2916 14176 -1575 -86 102
18:02:20.319436 658.17 1204 2868 14208 -1560 -72 103
18:02:20.331863 658.18 1316 2896 14112 -1607 -96 105
18:02:20.332086 658.19 1364 2804 14256 -1594 -112 114
18:02:20.332283 658.2 1376 2728 14220 -1544 -149 63
18:02:20.334092 658.21 1348 2748 14100 -1483 -113 81
18:02:20.361832 658.22 1404 2736 14052 -1397 -53 62
18:02:20.367466 658.23 1452 2636 14240 -1307 4 60
18:02:20.367597 658.24 1452 2660 14132 -1321 -19 35
18:02:20.385122 658.25 1368 2492 14232 -1376 -49 51
18:02:20.398109 658.26 1324 2468 14268 -1304 -31 21
18:02:20.398255 658.27 1328 2560 14252 -1214 -32 23
18:02:20.398360 658.28 1408 2492 14208 -1268 -20 69
18:02:20.398462 658.29 1496 2400 14248 -1256 -12 18
18:02:20.418935 658.3 1484 2452 14080 -1242 -66 -3
18:02:20.431205 658.31 1464 2468 14328 -1212 -41 42
18:02:20.431444 658.32 1476 2388 14280 -1226 -21 12
18:02:20.438221 658.33 1456 2304 14252 -1181 10 21
18:02:20.455404 658.34 1388 2288 14324 -1216 -2 13
18:02:20.467091 658.35 1472 2372 14212 -1167 45 45
18:02:20.467950 658.36 1460 2260 14284 -1136 54 -11
18:02:20.479385 658.37 1464 2244 14256 -1162 39 9
18:02:20.499554 658.38 1452 2256 14216 -1129 55 23
18:02:20.499700 658.39 1520 2208 14196 -1097 -25 21
18:02:20.518896 658.4 1460 2156 14264 -1103 -18 34
18:02:20.536143 658.41 1388 2168 14248 -1060 33 29
18:02:20.537952 658.42 1476 2184 14160 -1033 11 19
18:02:20.539435 658.43 1416 2056 14260 -1038 36 23
18:02:20.553881 658.44 1532 2160 14344 -909 81 22
18:02:20.588812 658.45 1464 2104 14152 -844 1 26
18:02:20.601222 658.46 1456 2148 14116 -776 87 32
18:02:20.601375 658.47 1440 2100 14312 -707 93 34
18:02:20.601454 658.48 1476 1984 14000 -737 84 21
18:02:20.621556 658.49 1456 1996 14148 -571 146 0
18:02:20.632547 658.5 1504 2008 14244 -552 90 10
18:02:20.635131 658.51 1532 2040 14124 -516 84 15
18:02:20.636652 658.52 1552 2036 14100 -464 59 5
18:02:20.651540 658.53 1628 1980 14188 -352 128 49
18:02:20.670505 658.54 1496 1964 14312 102 325 -23
18:02:20.670755 658.55 1616 1988 14364 226 330 -43
18:02:20.694366 658.56 1540 1992 14348 149 240 -9
18:02:20.721375 658.57 1476 2064 14084 124 174 -1
18:02:20.729477 658.58 1432 2008 13992 187 204 13
18:02:20.729620 658.59 1584 1960 14392 552 358 -35
18:02:20.733674 658.6 1476 2084 14508 616 537 -20
18:02:20.736283 658.61 1336 2168 14216 -15 456 57
18:02:20.772616 658.62 1456 1956 13684 -716 13 140
18:02:20.774467 658.63 1736 1880 14804 710 622 -56
18:02:20.799186 658.64 1508 2272 14240 1234 175 -94
18:02:20.800349 658.65 1472 2036 14052 304 -82 28
18:02:20.800973 658.66 1608 2080 14444 1353 696 -120
18:02:20.804034 658.67 1228 2280 13784 284 183 41
18:02:20.866111 658.68 1464 2032 13896 -168 -61 106
18:02:20.867327 658.69 1620 2040 14128 743 534 33
18:02:20.868455 658.7 1520 2252 14504 1190 669 -93
18:02:20.871585 658.71 1464 2320 14512 1292 569 -84
18:02:20.874754 658.72 1464 2404 14412 1159 471 -43
18:02:20.875233 658.73 1420 2428 14216 1011 582 -12
18:02:20.897400 658.74 1300 2456 14176 1016 567 -3
18:02:20.897560 658.75 1308 2380 14296 945 292 27
18:02:20.916403 658.76 1456 2376 14224 891 289 -14
18:02:20.935981 658.77 1372 2296 14072 837 342 33
18:02:20.936095 658.78 1360 2380 13972 753 405 21
18:02:20.936167 658.79 1404 2324 13912 813 440 32
18:02:20.953108 658.8 1464 2304 14028 1167 529 -43
18:02:20.968375 658.81 1400 2440 14316 1597 517 -81
18:02:20.996125 658.82 1428 2436 14312 1802 547 -93
18:02:20.998872 658.83 1304 2508 14236 1737 615 -120
18:02:20.999375 658.84 1368 2552 14280 1596 554 -77
18:02:21.000466 658.85 1368 2600 14208 1497 592 -83
18:02:21.001717 658.86 1348 2708 14188 1417 552 -79
18:02:21.010525 658.87 1384 2712 14224 1386 542 -52
18:02:21.030022 658.88 1264 2880 14232 1205 535 -83
18:02:21.032612 658.89 1376 2744 14132 1049 407 -26
18:02:21.034233 658.9 1368 2804 14060 1094 361 -31
18:02:21.055974 658.91 1312 2780 14012 1281 458 -58
18:02:21.063153 658.92 1244 2840 14092 1502 485 -53
18:02:21.070028 658.93 1308 2860 14236 1796 633 -97
18:02:21.071648 658.94 1180 2980 14204 1994 654 -120
18:02:21.093438 658.95 1256 3060 14308 1919 637 -144
18:02:21.103944 658.96 1236 2996 14316 1936 966 -146
18:02:21.105403 658.97 1244 3160 13988 1394 667 -45
18:02:21.129016 658.98 1360 3084 14156 1088 630 -101
18:02:21.143441 658.99 1224 3164 14044 1363 648 -127
18:02:21.173496 659.0 1132 3172 13992 1197 389 -113
18:02:21.175104 659.01 1316 3108 14160 1488 573 -150
18:02:21.176041 659.02 1284 3164 14156 1537 539 -122
18:02:21.178503 659.03 1196 3308 14140 1429 518 -86
18:02:21.197478 659.04 1220 3420 14044 1348 402 -34
18:02:21.197720 659.05 1204 3436 13992 1221 394 -74
18:02:21.205102 659.06 1244 3372 14036 1153 426 -98
18:02:21.206829 659.07 1180 3540 14216 1216 462 -109
18:02:21.228136 659.08 1108 3636 14056 1299 516 -129
18:02:21.237476 659.09 1228 3464 14092 1232 573 -110
18:02:21.240277 659.1 1180 3528 14076 1075 564 -137
18:02:21.295887 659.11 1104 3476 14024 1054 505 -97
18:02:21.307622 659.12 1216 3508 14148 1090 517 -108
18:02:21.307845 659.13 1052 3564 13988 1095 482 -99
18:02:21.308298 659.14 1180 3612 13944 1047 392 -51
18:02:21.308528 659.15 1116 3612 13820 1040 445 -88
18:02:21.310141 659.16 1164 3556 14028 1127 509 -78
18:02:21.311816 659.17 1220 3624 13976 1175 522 -121
18:02:21.327401 659.18 1084 3676 13968 1108 525 -93
18:02:21.352273 659.19 1116 3792 13940 996 479 -92
18:02:21.361743 659.2 1096 3832 14136 884 441 -61
18:02:21.416632 659.21 1132 3676 13944 840 486 -84
18:02:21.418866 659.22 1148 3920 13996 782 445 -50
18:02:21.419807 659.23 1032 3780 14016 823 466 -80
18:02:21.421052 659.24 1016 3916 13924 836 462 -51
18:02:21.422243 659.25 1096 3880 13940 827 404 -80
18:02:21.447613 659.26 1056 3928 13896 784 458 -94
18:02:21.457415 659.27 1108 3960 14124 799 459 -76
18:02:21.457576 659.28 1140 3928 14056 777 440 -61
18:02:21.457687 659.29 1040 4116 13908 737 400 -52
18:02:21.457836 659.3 1112 3988 13848 671 370 -70
18:02:21.478704 659.31 1004 3860 13948 624 420 -62
18:02:21.489743 659.32 1104 4020 13984 628 395 -53
18:02:21.489883 659.33 1108 3964 13928 599 398 -75
18:02:21.489998 659.34 1020 4068 13924 587 440 -60
18:02:21.543489 659.35 1008 4004 14004 556 440 -81
18:02:21.554154 659.36 1020 4136 13792 554 441 -89
18:02:21.554361 659.37 908 4176 13856 488 404 -77
18:02:21.554527 659.38 1008 4124 13792 433 358 -70
18:02:21.554687 659.39 996 4160 13852 445 338 -29
18:02:21.565365 659.4 1000 4176 13936 429 349 -48
18:02:21.590533 659.41 1000 4160 13820 426 336 -21
18:02:21.590686 659.42 940 4124 13840 399 336 -27
18:02:21.590883 659.43 892 4204 13980 371 341 -34
18:02:21.591165 659.44 1000 4176 13884 370 350 -28
18:02:21.612551 659.45 1060 4320 13868 400 355 -73
18:02:21.625093 659.46 996 4252 13932 369 389 -40
18:02:21.626388 659.47 1008 4236 13888 324 395 -52
18:02:21.646255 659.48 1068 4244 13872 324 386 -53
18:02:21.656969 659.49 1012 4188 13760 304 366 -59
18:02:21.662958 659.5 1016 4276 13844 233 374 -47
18:02:21.689447 659.51 972 4204 13912 275 370 -34
18:02:21.689603 659.52 808 4312 13976 220 326 -26
18:02:21.747316 659.53 996 4320 13972 239 357 -28
18:02:21.752179 659.54 988 4272 13852 270 349 -30
18:02:21.818450 659.55 900 4228 14008 230 334 -19
18:02:21.827132 659.56 956 4288 13860 95 294 -30
18:02:21.827562 659.57 932 4324 13832 45 275 -25
18:02:21.827986 659.58 940 4272 13772 -26 256 -13
18:02:21.828289 659.59 976 4252 13884 112 348 -51
18:02:21.842206 659.6 996 4276 14064 369 478 -85
18:02:21.851681 659.61 788 4280 13900 398 463 -49
18:02:21.851877 659.62 1024 4312 13880 277 400 -73
18:02:21.852310 659.63 940 4296 13876 47 333 -25
18:02:21.852738 659.64 968 4312 13756 -67 268 0
18:02:21.853101 659.65 828 4360 13876 -227 150 72
18:02:21.853802 659.66 892 4292 13468 -963 -86 143
18:02:21.854995 659.67 1236 4200 14012 -205 383 -1
18:02:21.865983 659.68 892 4468 14216 640 430 -119
18:02:21.875936 659.69 816 4456 13940 -213 -42 28
18:02:21.880686 659.7 912 4368 14004 -228 205 31
18:02:21.881760 659.71 768 4256 13636 -659 89 104
18:02:21.908043 659.72 840 4160 13472 -773 -176 156
18:02:21.908145 659.73 1032 4144 13680 -262 97 70
18:02:21.925155 659.74 996 4236 13864 99 141 26
18:02:21.940188 659.75 884 4356 14140 297 -20 47
18:02:21.940407 659.76 896 4420 13788 143 23 29
18:02:21.961350 659.77 932 4376 14016 140 120 76
18:02:21.983091 659.78 912 4316 13920 113 118 42
18:02:22.003307 659.79 924 4404 14136 76 142 42
18:02:22.003508 659.8 960 4416 14004 -22 251 -9
18:02:22.061296 659.81 900 4476 13828 -93 261 3
18:02:22.070810 659.82 892 4316 13676 -30 330 -12
18:02:22.071210 659.83 876 4288 13636 98 275 -38
18:02:22.071511 659.84 964 4352 13860 183 221 -7
18:02:22.071745 659.85 976 4260 13964 146 181 -2
18:02:22.071953 659.86 996 4284 13932 -14 177 40
18:02:22.073372 659.87 936 4404 13976 -157 179 26
18:02:22.074586 659.88 960 4364 13864 -249 223 12
18:02:22.075512 659.89 920 4324 14008 -423 229 21
18:02:22.080725 659.9 960 4396 13896 -616 188 35
18:02:22.095964 659.91 1000 4412 14020 -703 157 46
18:02:22.126537 659.92 924 4408 13860 -810 169 28
18:02:22.137842 659.93 952 4288 13952 -997 141 62
18:02:22.137941 659.94 1004 4340 13632 -1118 38 105
18:02:22.138010 659.95 936 4356 13916 -1139 34 99
18:02:22.140588 659.96 908 4192 13824 -1195 -2 82
18:02:22.163979 659.97 928 4268 14024 -1173 -20 139
18:02:22.180203 659.98 888 4228 14032 -1197 -11 142
18:02:22.182042 659.99 968 4332 13860 -1250 -66 139
18:02:22.204942 660.0 920 4220 13956 -1301 -158 123
18:02:22.205061 660.01 1064 4220 14224 -1197 195 80
18:02:22.216534 660.02 900 4176 13672 -1755 -102 183
18:02:22.300405 660.03 1160 3996 13712 -2099 -220 188
18:02:22.372238 660.04 1148 3832 13912 -1333 -30 107
18:02:22.373357 660.05 1100 4048 14056 -1111 -39 62
18:02:22.374686 660.06 1180 3944 14060 -1362 -35 114
18:02:22.375907 660.07 1048 3940 13916 -1547 -54 129
18:02:22.382751 660.08 964 3852 13996 -1559 -50 133
18:02:22.401259 660.09 1048 3904 13988 -1548 -109 143
18:02:22.410212 660.1 1072 3908 14096 -1709 -111 157
18:02:22.410344 660.11 1012 3900 14128 -1788 -134 164
18:02:22.410439 660.12 1188 3800 14076 -1813 -171 162
18:02:22.410528 660.13 1080 3712 14232 -1806 -181 186
18:02:22.410644 660.14 1188 3500 14140 -1704 -20 148
18:02:22.410774 660.15 1052 3508 14080 -1905 -129 170
18:02:22.410956 660.16 1128 3384 14056 -2073 -215 152
18:02:22.419383 660.17 1220 3312 13988 -1840 -131 141
18:02:22.440141 660.18 1152 3252 14092 -1738 -151 133
18:02:22.440286 660.19 1120 3316 13952 -1756 -147 124
18:02:22.440546 660.2 1156 3284 14124 -1782 -173 148
18:02:22.497019 660.21 1232 3196 14100 -1836 -135 157
18:02:22.504900 660.22 1312 3160 14096 -1798 -158 134
18:02:22.505038 660.23 1196 3212 14200 -1719 -90 145
18:02:22.505213 660.24 1264 3136 14108 -1765 -138 136
18:02:22.505430 660.25 1280 3100 14192 -1800 -64 120
18:02:22.518168 660.26 1208 3020 13904 -1822 -181 129
18:02:22.541099 660.27 1252 3020 14196 -1694 -203 137
18:02:22.541238 660.28 1248 2980 14044 -1599 -89 87
18:02:22.543784 660.29 1248 2908 14132 -1537 -67 102
18:02:22.583683 660.3 1352 2832 14328 -1540 -78 122
18:02:22.584599 660.31 1272 2884 14160 -1576 -93 85
18:02:22.585838 660.32 1324 2964 14128 -1527 -116 117
18:02:22.608211 660.33 1304 2876 14220 -1561 -94 112
18:02:22.608397 660.34 1348 2756 14156 -1421 -101 82
18:02:22.608628 660.35 1324 2712 14296 -1369 -29 71
18:02:22.613109 660.36 1460 2816 14212 -1334 -63 65
18:02:22.664813 660.37 1360 2712 14292 -1299 -39 40
18:02:22.672935 660.38 1404 2724 14208 -1372 -65 42
18:02:22.673162 660.39 1312 2684 14204 -1279 -38 52
18:02:22.673355 660.4 1396 2632 14208 -1278 -29 -4
18:02:22.673547 660.41 1304 2588 14184 -1308 -105 46
18:02:22.673736 660.42 1368 2608 14356 -1274 -44 0
18:02:22.701653 660.43 1292 2472 14268 -1207 -42 26
18:02:22.711583 660.44 1336 2436 14292 -1251 -6 27
18:02:22.711697 660.45 1340 2508 14244 -1277 -21 13
18:02:22.719708 660.46 1356 2504 14112 -1234 10 45
18:02:22.743458 660.47 1408 2544 14312 -1285 -34 18
18:02:22.743823 660.48 1436 2404 14176 -1292 -44 51
18:02:22.763911 660.49 1396 2336 14244 -1172 -15 15
18:02:22.803269 660.5 1576 2320 14224 -1143 -2 45
18:02:22.806401 660.51 1476 2276 14280 -1096 53 28
18:02:22.807551 660.52 1380 2308 14192 -1076 66 39
18:02:22.808820 660.53 1432 2344 14352 -1046 34 34
18:02:22.810100 660.54 1424 2320 14388 -997 90 26
18:02:22.817666 660.55 1444 2392 14336 -1027 42 27
18:02:22.833083 660.56 1468 2264 14176 -1126 -27 21
18:02:22.840878 660.57 1480 2212 14256 -1120 -22 28
18:02:22.846878 660.58 1376 2172 14240 -979 -10 32
18:02:22.875612 660.59 1500 2276 14180 -979 22 -4
18:02:22.880399 660.6 1400 2172 14308 -887 82 29
18:02:22.880513 660.61 1376 2184 14404 -970 107 11
18:02:22.930192 660.62 1532 2116 14296 -919 103 -34
18:02:22.940992 660.63 1428 2116 14148 -914 77 23
18:02:22.941396 660.64 1448 2032 14260 -903 75 23
18:02:22.941796 660.65 1476 2088 14136 -968 2 21
18:02:22.942195 660.66 1412 1972 14092 -944 -12 58
18:02:22.969222 660.67 1524 2036 14296 -636 165 -1
18:02:22.977243 660.68 1472 2000 14496 -402 211 -9
18:02:22.977424 660.69 1500 2132 14420 -483 126 -13
18:02:23.028563 660.7 1496 2012 14356 -597 29 9
18:02:23.043798 660.71 1396 1956 13968 -639 -4 34
18:02:23.043923 660.72 1516 1908 14188 -443 26 7
18:02:23.043996 660.73 1660 1972 14440 -110 333 -18
18:02:23.044064 660.74 1404 2016 14264 -390 304 34
18:02:23.044130 660.75 1460 1976 13676 -1295 27 133
18:02:23.044194 660.76 1876 1708 14476 -787 162 56
18:02:23.044258 660.77 1528 1824 14624 629 366 -104
18:02:23.048129 660.78 1280 1992 14016 -116 -265 16
18:02:23.096960 660.79 1652 1740 14228 15 92 -4
18:02:23.107933 660.8 1504 1944 14324 545 499 -43
18:02:23.108067 660.81 1376 1952 13692 -667 -248 142
18:02:23.108176 660.82 1692 1872 13980 -230 74 126
18:02:23.108282 660.83 1560 1904 14280 553 528 -2
18:02:23.137021 660.84 1520 2008 14560 912 590 -79
18:02:23.144699 660.85 1408 2116 14616 864 514 -77
18:02:23.144901 660.86 1348 2152 14284 513 412 -17
18:02:23.147984 660.87 1380 2116 14232 449 438 41
18:02:23.150602 660.88 1508 2132 14408 422 388 15
18:02:23.170295 660.89 1488 2116 14436 282 324 13
18:02:23.178128 660.9 1452 2056 14224 76 193 35
18:02:23.243124 660.91 1516 2096 14176 -112 194 70
18:02:23.244822 660.92 1380 1976 14024 -55 266 38
18:02:23.244946 660.93 1388 1940 14128 205 297 27
18:02:23.245229 660.94 1440 2020 14092 515 281 -12
18:02:23.249591 660.95 1592 1996 14400 749 266 -10
18:02:23.253348 660.96 1512 2076 14472 758 353 -28
18:02:23.256377 660.97 1532 2232 14508 638 340 -48
18:02:23.277146 660.98 1492 2132 14260 475 377 -38
18:02:23.303276 660.99 1572 2012 14116 356 329 -39
18:02:23.310941 661.0 1428 2084 14156 366 333 -4
18:02:23.311140 661.01 1452 2136 14268 412 272 19
18:02:23.365194 661.02 1424 2136 14112 343 241 22
18:02:23.378881 661.03 1508 2184 14160 407 291 -6
18:02:23.379097 661.04 1484 2288 14192 478 305 47
18:02:23.379356 661.05 1440 2284 14172 700 341 -1
18:02:23.379587 661.06 1348 2276 14160 1033 414 2
18:02:23.379814 661.07 1484 2372 14220 1238 442 -6
18:02:23.380035 661.08 1376 2388 14284 1274 454 -16
18:02:23.380255 661.09 1408 2400 14384 1518 765 -82
18:02:23.388117 661.1 1300 2528 14092 1090 487 23
18:02:23.389482 661.11 1444 2440 13992 816 405 14
18:02:23.452138 661.12 1484 2364 14256 1440 602 -80
18:02:23.453293 661.13 1300 2596 14032 1340 362 -50
18:02:23.454318 661.14 1488 2380 14088 1311 365 -41
18:02:23.470811 661.15 1352 2484 14196 1766 586 -74
18:02:23.479964 661.16 1436 2536 14068 1789 531 -66
18:02:23.504133 661.17 1404 2652 14128 1793 552 -71
18:02:23.511903 661.18 1292 2748 14196 1820 466 -77
18:02:23.512164 661.19 1404 2696 14232 1916 518 -101
18:02:23.512390 661.2 1336 2768 14292 2076 636 -146
18:02:23.512608 661.21 1292 2936 14352 2096 810 -164
18:02:23.512820 661.22 1340 2924 14216 1956 809 -172
18:02:23.551668 661.23 1172 2968 14220 1661 792 -136
18:02:23.553039 661.24 1240 3024 14084 1452 736 -139
18:02:23.554575 661.25 1292 2948 14084 1478 706 -131
18:02:23.556675 661.26 1336 2924 14232 1442 726 -144
18:02:23.578311 661.27 1236 3068 14116 1384 640 -103
18:02:23.578421 661.28 1156 3132 13980 1234 582 -126
18:02:23.590416 661.29 1204 3096 14048 1323 570 -99
18:02:23.592235 661.3 1292 3152 14060 1387 567 -85
18:02:23.612485 661.31 1304 3160 14296 1341 550 -113
18:02:23.612584 661.32 1216 3132 14240 1254 517 -74
18:02:23.673389 661.33 1232 3256 14000 1232 504 -38
18:02:23.681076 661.34 1236 3308 14192 1220 554 -100
18:02:23.681316 661.35 1196 3436 14068 1255 562 -76
18:02:23.681563 661.36 1164 3340 14108 1246 675 -112
18:02:23.684855 661.37 1272 3392 14116 1294 635 -87
18:02:23.689463 661.38 1224 3412 14272 1216 604 -99
18:02:23.692257 661.39 1168 3528 14136 1188 559 -93
18:02:23.711816 661.4 1116 3468 14160 1094 574 -64
18:02:23.712089 661.41 1208 3504 13896 1081 530 -63
18:02:23.735448 661.42 1180 3592 14132 984 452 -74
18:02:23.744268 661.43 1136 3544 14028 887 425 -57
18:02:23.746752 661.44 1104 3636 14004 881 430 -54
18:02:23.804379 661.45 1052 3564 14084 924 439 -85
18:02:23.812012 661.46 1032 3532 13972 971 485 -71
18:02:23.812257 661.47 1116 3644 14128 1046 480 -97
18:02:23.812620 661.48 1228 3596 14024 982 520 -100
18:02:23.812981 661.49 1084 3708 13968 957 533 -90
18:02:23.833588 661.5 1076 3640 14080 973 532 -119
18:02:23.847650 661.51 1084 3740 13876 998 521 -86
18:02:23.847738 661.52 964 3828 14044 888 511 -69
18:02:23.847804 661.53 1072 3796 13968 911 449 -84
18:02:23.902018 661.54 1032 3888 13984 832 479 -62
18:02:23.912069 661.55 1036 3836 14116 837 448 -92
18:02:23.912415 661.56 1052 3848 13928 736 450 -83
18:02:23.912732 661.57 1028 3868 14028 757 406 -80
18:02:23.913030 661.58 992 3928 13876 715 377 -50
18:02:23.913339 661.59 1028 3964 14032 623 406 -39
18:02:23.913636 661.6 1032 3964 14052 601 413 -46
18:02:23.943146 661.61 1008 4020 13860 611 402 -83
18:02:23.949620 661.62 1048 3932 14056 567 391 -78
18:02:24.003716 661.63 1004 4012 13800 552 439 -57
18:02:24.016647 661.64 964 4028 13996 516 433 -51
18:02:24.051400 661.65 1020 4068 13912 522 431 -36
18:02:24.052461 661.66 1088 3988 13948 561 391 -64
18:02:24.053752 661.67 1048 4068 13876 549 444 -65
18:02:24.055016 661.68 1008 3944 13876 546 434 -82
18:02:24.056401 661.69 976 4116 13856 586 422 -66
18:02:24.058620 661.7 976 4072 13872 500 409 -40
18:02:24.105962 661.71 1032 4116 14020 310 309 4
18:02:24.113409 661.72 916 4108 13792 159 280 -29
18:02:24.140057 661.73 1004 4076 13944 308 421 -18
18:02:24.147901 661.74 928 4028 14064 585 531 -73
18:02:24.148195 661.75 924 4224 13940 656 502 -96
18:02:24.148429 661.76 904 4188 14004 500 455 -77
18:02:24.148651 661.77 924 4204 13892 277 362 -51
18:02:24.148891 661.78 936 4088 13892 141 320 -48
18:02:24.149111 661.79 996 4156 14120 255 306 -39
18:02:24.171261 661.8 768 4204 13888 -293 209 72
18:02:24.181496 661.81 1012 4048 13612 -737 -9 98
18:02:24.181635 661.82 1140 4220 14376 765 652 -141
18:02:24.237527 661.83 908 4328 13908 424 189 -73
18:02:24.246195 661.84 956 4144 13972 -13 84 23
18:02:24.246359 661.85 928 4240 13648 -316 238 69
18:02:24.246441 661.86 856 3964 13300 -773 -169 140
18:02:24.246518 661.87 1012 4012 13468 -215 88 110
18:02:24.248488 661.88 1088 4164 14052 212 182 15
18:02:24.250172 661.89 888 4172 14184 552 24 46
18:02:24.252234 661.9 936 4272 13956 505 78 12
18:02:24.255834 661.91 900 4324 14008 477 227 11
18:02:24.257147 661.92 952 4408 14116 431 241 -27
18:02:24.258234 661.93 1000 4352 13964 258 223 11
18:02:24.279398 661.94 1036 4388 13940 64 287 -16
18:02:24.301833 661.95 1012 4316 13588 14 344 -27
18:02:24.352941 661.96 980 4288 13768 41 310 -31
18:02:24.354138 661.97 968 4180 13900 208 286 -22
18:02:24.355128 661.98 916 4264 13912 267 253 -17
18:02:24.357256 661.99 976 4348 13916 273 275 6
18:02:24.360138 662.0 1004 4284 13868 201 226 -18
18:02:24.383111 662.01 968 4280 14024 88 211 -1
18:02:24.383470 662.02 984 4324 14012 9 258 -7
18:02:24.383738 662.03 1068 4208 13812 -60 248 15
18:02:24.384736 662.04 892 4320 13756 -199 260 20
18:02:24.406459 662.05 976 4360 13900 -253 215 -5
18:02:24.479812 662.06 876 4380 13968 -306 203 19
18:02:24.481561 662.07 956 4300 13816 -358 204 9
18:02:24.481750 662.08 1032 4324 13868 -349 236 2
18:02:24.482866 662.09 920 4272 14000 -304 210 26
18:02:24.485550 662.1 932 4396 13992 -259 235 24
18:02:24.486731 662.11 936 4360 13884 -237 252 15
18:02:24.487945 662.12 944 4336 13888 -234 251 12
18:02:24.489081 662.13 936 4344 14004 -218 270 -11
18:02:24.490176 662.14 912 4356 13720 -353 156 2
18:02:24.526042 662.15 1036 4340 14268 -256 476 -41
18:02:24.527267 662.16 832 4368 13580 -827 139 67
18:02:24.549203 662.17 1056 4224 13724 -1301 12 114
18:02:24.549337 662.18 1012 4308 14020 -708 199 45
18:02:24.575746 662.19 856 4280 14016 -820 72 75
18:02:24.584185 662.2 936 4212 13860 -972 49 49
18:02:24.584298 662.21 972 4292 14040 -1171 0 99
18:02:24.584405 662.22 916 4220 13868 -1368 -45 113
18:02:24.584527 662.23 920 4140 14044 -1280 -21 123
18:02:24.610079 662.24 920 4184 14008 -1376 -166 126
18:02:24.619702 662.25 1008 4136 14060 -1582 -183 184
18:02:24.619923 662.26 1036 4124 14060 -1630 -81 177
18:02:24.672059 662.27 1028 4096 14104 -1776 -191 217
18:02:24.684144 662.28 1064 3992 13972 -1819 -160 192
18:02:24.684458 662.29 1092 3964 14032 -1946 -168 209
