18:00:00.024743 524.27 1308 3424 13904 -1597 103 107
18:00:00.027858 524.28 1464 3364 14036 -1472 77 67
18:00:00.027993 524.29 1296 3436 14088 -1306 119 84
18:00:00.029117 524.3 1380 3276 14056 -1207 185 65
18:00:00.064032 524.31 1328 3472 14020 -1140 249 74
18:00:00.067416 524.32 1260 3432 13988 -1407 187 56
18:00:00.080839 524.33 1256 3200 14296 -1320 318 46
18:00:00.090652 524.34 1216 3288 14140 -1397 309 93
18:00:00.116913 524.35 1304 3304 13880 -1917 35 161
18:00:00.132664 524.36 1448 3148 13888 -1863 40 125
18:00:00.132830 524.37 1264 3068 14284 -1329 107 66
18:00:00.132928 524.38 1296 3100 14176 -1141 8 64
18:00:00.133021 524.39 1380 3128 14024 -1431 -10 86
18:00:00.133112 524.4 1364 3052 14120 -1558 -43 108
18:00:00.192075 524.41 1408 3128 14036 -1550 -43 127
18:00:00.199823 524.42 1384 3100 14204 -1584 -94 118
18:00:00.199936 524.43 1340 2956 14208 -1516 -6 80
18:00:00.203041 524.44 1424 2896 14068 -1491 47 57
18:00:00.204032 524.45 1360 2972 14268 -1378 81 17
18:00:00.205431 524.46 1356 2848 14296 -1436 152 15
18:00:00.228969 524.47 1300 2832 14268 -1521 107 59
18:00:00.229158 524.48 1428 2784 13908 -1637 61 9
18:00:00.229300 524.49 1392 2720 14212 -1790 -33 65
18:00:00.235120 524.5 1516 2704 14204 -1689 6 37
18:00:00.259477 524.51 1444 2672 14236 -1534 0 28
18:00:00.262678 524.52 1480 2672 13880 -1575 9 4
18:00:00.285695 524.53 1408 2628 14180 -1497 -29 10
18:00:00.293587 524.54 1284 2644 14088 -1459 4 4
18:00:00.293753 524.55 1372 2568 14036 -1385 -34 45
18:00:00.293877 524.56 1436 2544 14068 -1426 -15 5
18:00:00.301650 524.57 1400 2520 14228 -1349 2 42
18:00:00.319324 524.58 1572 2388 14080 -1414 48 44
18:00:00.331452 524.59 1492 2516 14148 -1372 55 36
18:00:00.351227 524.6 1412 2476 14200 -1292 28 22
18:00:00.360041 524.61 1400 2404 14160 -1222 48 19
18:00:00.360190 524.62 1380 2472 14300 -1132 103 13
18:00:00.361230 524.63 1376 2436 14248 -1247 12 35
18:00:00.384391 524.64 1492 2344 14152 -1194 53 -13
18:00:00.405346 524.65 1496 2364 14172 -1250 71 -1
18:00:00.405956 524.66 1436 2368 14084 -1252 20 2
18:00:00.425391 524.67 1432 2292 14136 -1156 48 8
18:00:00.425585 524.68 1532 2276 14308 -1092 113 -8
18:00:00.425736 524.69 1476 2220 14200 -1147 137 -20
18:00:00.436363 524.7 1384 2160 14248 -1137 87 -3
18:00:00.453797 524.71 1408 2220 14160 -1115 62 -14
18:00:00.460483 524.72 1424 2152 14328 -1145 43 -44
18:00:00.482936 524.73 1468 2172 14384 -1197 4 42
18:00:00.497358 524.74 1464 2112 14384 -1141 21 -3
18:00:00.498499 524.75 1512 2124 14340 -1048 37 -8
18:00:00.499410 524.76 1528 2072 14120 -1120 33 -68
18:00:00.515192 524.77 1444 2024 14192 -1148 65 -55
18:00:00.528244 524.78 1504 2096 14348 -999 29 -50
18:00:00.536130 524.79 1432 2012 14368 -1065 101 -44
18:00:00.538002 524.8 1512 2124 14352 -1178 118 -43
18:00:00.551121 524.81 1444 1912 14376 -1115 67 -37
18:00:00.560420 524.82 1400 1956 14400 -1148 -2 -26
18:00:00.586357 524.83 1492 1840 14152 -1248 -19 -9
18:00:00.595435 524.84 1460 1964 14292 -1143 15 9
18:00:00.595807 524.85 1576 1824 14312 -1053 10 -2
18:00:00.596927 524.86 1508 1880 14268 -1038 23 -22
18:00:00.621747 524.87 1496 1856 14280 -1133 56 -34
18:00:00.629236 524.88 1480 1896 14332 -1139 36 -18
18:00:00.631182 524.89 1488 1772 14232 -1060 29 2
18:00:00.657381 524.9 1620 1760 14264 -1123 145 -17
18:00:00.663726 524.91 1564 1708 14256 -1164 271 -45
18:00:00.727741 524.92 1584 1736 14344 -1068 306 -60
18:00:00.729578 524.93 1532 1656 14136 -914 210 -58
18:00:00.729835 524.94 1512 1772 14260 -879 123 -45
18:00:00.731041 524.95 1384 1692 14268 -921 41 -39
18:00:00.733639 524.96 1488 1648 14156 -1049 -63 24
18:00:00.735639 524.97 1476 1604 14136 -930 -39 19
18:00:00.759745 524.98 1688 1604 14456 -485 85 0
18:00:00.764335 524.99 1608 1732 14420 -386 42 -25
18:00:00.764437 525.0 1584 1720 14324 -452 -8 -6
18:00:00.764506 525.01 1564 1680 14168 -570 -13 31
18:00:00.775234 525.02 1512 1612 14168 -546 -126 24
18:00:00.802100 525.03 1520 1524 14364 -376 0 33
18:00:00.802206 525.04 1656 1652 14476 -402 201 15
18:00:00.802269 525.05 1336 1728 14016 -920 194 26
18:00:00.841012 525.06 1576 1460 13852 -1328 -222 83
18:00:00.842024 525.07 1808 1392 14856 59 322 -51
18:00:00.864505 525.08 1628 1700 13976 373 -38 -18
18:00:00.864639 525.09 1628 1508 13828 -669 -310 68
18:00:00.864725 525.1 1648 1488 14356 504 474 -39
18:00:00.864806 525.11 1404 1664 13876 -189 15 58
18:00:00.873947 525.12 1568 1408 13756 -594 -178 127
18:00:00.875992 525.13 1740 1436 14136 425 381 24
18:00:00.904944 525.14 1648 1592 14540 698 497 -12
18:00:00.922918 525.15 1652 1656 14588 800 462 -23
18:00:00.931734 525.16 1632 1740 14436 544 371 -9
18:00:00.931964 525.17 1500 1616 14140 307 468 -8
18:00:00.933453 525.18 1480 1680 14320 262 384 29
18:00:00.935062 525.19 1672 1700 14288 217 283 28
18:00:00.956240 525.2 1604 1676 14184 242 369 21
18:00:00.964562 525.21 1604 1612 14132 163 347 10
18:00:00.999944 525.22 1628 1592 13968 235 317 67
18:00:01.000994 525.23 1572 1716 13932 422 282 44
18:00:01.002222 525.24 1652 1648 14176 669 251 9
18:00:01.005144 525.25 1720 1640 14320 889 290 6
18:00:01.008099 525.26 1512 1716 14512 941 320 5
18:00:01.032590 525.27 1556 1652 14448 822 323 -23
18:00:01.032899 525.28 1596 1720 14328 691 340 -46
18:00:01.057442 525.29 1576 1796 14292 642 364 -26
18:00:01.063889 525.3 1584 1728 14256 628 358 -8
18:00:01.063999 525.31 1636 1764 14192 610 351 -15
18:00:01.066050 525.32 1612 1856 14140 642 314 8
18:00:01.073817 525.33 1604 1828 14128 601 309 25
18:00:01.090376 525.34 1616 1844 14236 684 345 -2
18:00:01.106386 525.35 1564 1880 14276 865 373 0
18:00:01.107712 525.36 1552 1956 14336 912 406 -6
18:00:01.128669 525.37 1532 2000 14424 1126 439 -7
18:00:01.138207 525.38 1504 2072 14276 1120 399 -31
18:00:01.141766 525.39 1664 1984 14324 1174 542 -37
18:00:01.168857 525.4 1488 2092 14332 1307 619 -26
18:00:01.173937 525.41 1580 2036 13980 825 306 1
18:00:01.175094 525.42 1536 2080 14172 893 426 13
18:00:01.191634 525.43 1448 2152 14240 1335 525 -71
18:00:01.204159 525.44 1448 2164 14168 1010 254 -27
18:00:01.204324 525.45 1544 2168 14188 1181 417 -57
18:00:01.210041 525.46 1532 2148 14220 1301 376 -33
18:00:01.237939 525.47 1460 2192 14176 1268 330 22
18:00:01.238045 525.48 1424 2348 14136 1259 325 -33
18:00:01.254892 525.49 1504 2348 14176 1245 363 -58
18:00:01.266345 525.5 1552 2388 14240 1350 362 -31
18:00:01.270914 525.51 1540 2348 14300 1532 528 -84
18:00:01.273450 525.52 1440 2408 14208 1624 595 -96
18:00:01.294693 525.53 1488 2480 14304 1449 602 -73
18:00:01.305224 525.54 1408 2508 14148 1276 589 -111
18:00:01.306476 525.55 1520 2432 14192 1260 535 -89
18:00:01.323801 525.56 1468 2408 14152 1336 500 -67
18:00:01.337288 525.57 1396 2528 14168 1403 465 -91
18:00:01.337472 525.58 1444 2616 14000 1190 395 -53
18:00:01.344186 525.59 1380 2480 14024 1177 445 -52
18:00:01.369635 525.6 1480 2660 14136 1282 495 -82
18:00:01.369849 525.61 1320 2640 14284 1305 418 -51
18:00:01.389299 525.62 1304 2652 14236 1292 497 -71
18:00:01.410096 525.63 1368 2760 14184 1168 508 -72
18:00:01.410992 525.64 1388 2848 14136 1030 509 -69
18:00:01.412596 525.65 1348 2832 14124 1049 488 -44
18:00:01.435553 525.66 1364 2828 14096 984 489 -46
18:00:01.435674 525.67 1328 2840 14024 948 462 -86
18:00:01.441378 525.68 1320 2848 14140 1002 485 -49
18:00:01.460355 525.69 1352 3012 14176 1058 408 -63
18:00:01.494885 525.7 1348 2968 14212 1075 458 -56
18:00:01.502041 525.71 1332 2956 14188 1097 451 -56
18:00:01.502183 525.72 1372 2988 14148 1139 472 -55
18:00:01.502284 525.73 1300 2980 14060 1085 432 -65
18:00:01.502381 525.74 1368 3092 13988 1073 449 -71
18:00:01.508874 525.75 1384 2980 14144 1116 454 -61
18:00:01.526059 525.76 1224 3100 14020 1147 507 -95
18:00:01.531263 525.77 1300 3120 14196 1169 536 -121
18:00:01.556762 525.78 1380 3148 14052 1113 482 -131
18:00:01.565397 525.79 1184 3216 13980 971 480 -99
18:00:01.565718 525.8 1232 3172 14156 1002 465 -125
18:00:01.620059 525.81 1424 3128 14076 1049 379 -88
18:00:01.634358 525.82 1260 3228 14048 1034 357 -104
18:00:01.634674 525.83 1348 3188 13952 1060 364 -81
18:00:01.635117 525.84 1196 3348 14044 1074 355 -110
18:00:01.635488 525.85 1304 3264 13944 1101 344 -85
18:00:01.635848 525.86 1268 3316 13968 1072 363 -85
18:00:01.654570 525.87 1252 3352 13888 1091 365 -88
18:00:01.669026 525.88 1300 3492 14068 1126 402 -83
18:00:01.669495 525.89 1228 3400 14016 1108 429 -73
18:00:01.725365 525.9 1332 3468 13960 1008 478 -94
18:00:01.733048 525.91 1232 3520 14136 967 430 -87
18:00:01.733183 525.92 1264 3508 14232 902 455 -97
18:00:01.733253 525.93 1256 3604 14168 891 450 -113
18:00:01.733318 525.94 1232 3444 14052 900 456 -102
18:00:01.733384 525.95 1328 3576 14064 871 393 -95
18:00:01.733448 525.96 1236 3600 14132 741 359 -61
18:00:01.733511 525.97 1220 3604 13984 633 319 -73
18:00:01.741050 525.98 1212 3532 14040 643 267 -60
18:00:01.820708 525.99 1232 3604 13980 711 325 -87
18:00:01.828768 526.0 1376 3676 14068 982 457 -113
18:00:01.829153 526.01 1228 3692 14276 1023 535 -95
18:00:01.829436 526.02 1176 3728 14064 889 472 -110
18:00:01.829672 526.03 1112 3792 13916 683 411 -66
18:00:01.830041 526.04 1132 3756 13900 610 358 -43
18:00:01.870624 526.05 1108 3744 14180 616 279 -63
18:00:01.881178 526.06 1152 3732 13928 459 316 17
18:00:01.885699 526.07 1036 3856 13584 -370 325 57
18:00:01.944993 526.08 1320 3692 14088 -28 225 -1
18:00:01.953315 526.09 1336 3944 14372 1189 584 -150
18:00:01.953947 526.1 1120 3980 14048 767 314 -70
18:00:01.954531 526.11 1152 3680 13928 204 247 -40
18:00:01.955133 526.12 1048 3892 13612 161 302 11
18:00:01.955545 526.13 1056 3688 13528 -478 -36 121
18:00:01.955821 526.14 1224 3768 13516 207 139 28
18:00:01.960230 526.15 1280 3740 14076 550 82 6
18:00:02.037280 526.16 1176 3944 14168 681 -4 7
18:00:02.053697 526.17 1108 3912 14160 695 44 -2
18:00:02.053958 526.18 1088 3940 14072 469 99 -1
18:00:02.054177 526.19 1048 3928 13996 445 160 18
18:00:02.054380 526.2 1232 3980 13988 410 233 6
18:00:02.054580 526.21 1188 4020 14060 396 395 -67
18:00:02.055139 526.22 1264 3988 13856 295 375 -79
18:00:02.056255 526.23 1244 3900 13764 262 351 -51
18:00:02.057503 526.24 1200 3968 14004 478 326 -50
18:00:02.058911 526.25 1184 4004 13960 602 306 -65
18:00:02.061659 526.26 1352 4000 13988 610 333 -49
18:00:02.079533 526.27 1140 3948 14072 506 292 -39
18:00:02.145560 526.28 1136 3988 14036 364 311 -14
18:00:02.153086 526.29 1160 3956 13900 306 315 -25
18:00:02.153415 526.3 1196 4028 14032 223 312 -18
18:00:02.153697 526.31 1092 3968 14112 180 264 -24
18:00:02.153965 526.32 1140 3996 13960 149 294 -3
18:00:02.154231 526.33 1144 4104 13848 103 269 -11
18:00:02.154495 526.34 1160 4044 14020 96 284 -29
18:00:02.154955 526.35 1176 4040 13968 102 298 -49
18:00:02.156096 526.36 1232 4092 13876 139 313 -31
18:00:02.164660 526.37 1128 4068 13828 199 359 -25
18:00:02.165116 526.38 1052 4088 13920 215 360 -57
18:00:02.179162 526.39 1228 4216 13860 286 355 -57
18:00:02.185542 526.4 1104 4208 13828 240 288 -59
18:00:02.211848 526.41 1260 4116 14004 490 524 -112
18:00:02.228107 526.42 1048 4260 13988 326 540 -50
18:00:02.229162 526.43 1104 4132 13500 -402 190 35
18:00:02.230308 526.44 1208 4140 13864 -11 380 -2
18:00:02.246517 526.45 1188 4144 13872 347 356 -84
18:00:02.253799 526.46 1172 4112 13864 194 296 -69
18:00:02.260890 526.47 1152 4200 13904 51 262 -48
18:00:02.262443 526.48 1052 4240 13760 -87 216 -19
18:00:02.282720 526.49 1032 4172 13980 10 197 -6
18:00:02.329370 526.5 1128 4112 13908 51 176 -23
18:00:02.333070 526.51 1176 4288 13976 29 235 -12
18:00:02.356861 526.52 1044 4216 13936 48 252 -13
18:00:02.357101 526.53 1092 4208 13924 72 295 -17
18:00:02.357362 526.54 1184 4292 13904 30 291 -45
18:00:02.357589 526.55 1136 4184 13896 -72 278 -11
18:00:02.357808 526.56 1132 4108 13756 -113 255 -6
18:00:02.358054 526.57 1044 4132 13836 -100 229 30
18:00:02.384601 526.58 1092 4136 13944 -28 267 -33
18:00:02.388054 526.59 1080 4108 13888 -34 231 -46
18:00:02.388195 526.6 1012 4192 13848 -170 207 -6
18:00:02.453486 526.61 1072 4204 13852 -150 241 -12
18:00:02.455245 526.62 1004 4236 13888 -152 252 -4
18:00:02.455669 526.63 1040 4176 14024 -148 246 -28
18:00:02.456841 526.64 1140 4084 14000 -178 253 -29
18:00:02.459337 526.65 1072 4120 13932 -202 241 -13
18:00:02.460572 526.66 1132 4068 13968 -225 260 9
18:00:02.482536 526.67 1204 4160 13948 -276 258 43
18:00:02.490987 526.68 1072 4196 13888 -281 221 27
18:00:02.491103 526.69 1172 4184 13876 -241 244 5
18:00:02.493397 526.7 1060 4168 13836 -255 223 21
18:00:02.495260 526.71 1088 4168 13836 -287 210 16
18:00:02.499021 526.72 1132 4240 13936 -321 223 8
18:00:02.523819 526.73 1048 4188 13936 -336 251 11
18:00:02.579684 526.74 1104 4188 13840 -441 255 -14
18:00:02.588229 526.75 1140 4232 13912 -543 227 26
18:00:02.588481 526.76 1076 4164 14064 -678 190 32
18:00:02.588840 526.77 1176 4172 13944 -750 196 29
18:00:02.589197 526.78 1084 4164 13968 -881 189 49
18:00:02.613610 526.79 1112 4032 13952 -979 231 48
18:00:02.621137 526.8 1120 4156 13908 -1196 181 70
18:00:02.621450 526.81 1092 4120 14116 -1432 132 64
18:00:02.621726 526.82 1112 4084 13944 -1574 121 111
18:00:02.647147 526.83 1080 4040 13860 -1622 24 124
18:00:02.656402 526.84 1060 4052 13904 -1616 -3 117
18:00:02.661896 526.85 1100 3928 13932 -1585 14 134
18:00:02.663006 526.86 1092 3972 13904 -1618 54 123
18:00:02.664550 526.87 1104 3848 14008 -1673 68 121
18:00:02.679825 526.88 1200 3840 13976 -1703 26 130
18:00:02.695793 526.89 1124 3708 13872 -1749 38 119
18:00:02.697305 526.9 1156 3644 13960 -1736 59 107
18:00:02.722160 526.91 1088 3700 13976 -1696 36 146
18:00:02.723200 526.92 1180 3700 13932 -1708 22 161
18:00:02.724440 526.93 1164 3688 14044 -1650 15 172
18:00:02.731726 526.94 1172 3644 13972 -1687 -56 209
18:00:02.756024 526.95 1176 3608 14040 -1745 -4 173
18:00:02.757537 526.96 1160 3552 13956 -1714 0 199
18:00:02.782380 526.97 1196 3544 13968 -1695 -86 161
18:00:02.789136 526.98 1284 3500 14108 -1670 -6 150
18:00:02.789283 526.99 1060 3444 14080 -1659 25 136
18:00:02.791836 527.0 1188 3380 13960 -1724 43 117
18:00:02.816200 527.01 1100 3424 14004 -1800 19 156
18:00:02.824908 527.02 1168 3344 14120 -1726 12 125
18:00:02.888633 527.03 1140 3392 14108 -1717 -18 147
18:00:02.890243 527.04 1152 3208 14068 -1758 -32 154
18:00:02.890379 527.05 1300 3212 14024 -1762 -60 158
18:00:02.891525 527.06 1248 3184 14124 -1801 -17 161
18:00:02.895017 527.07 1264 3156 14124 -1811 -56 126
18:00:02.897380 527.08 1268 3168 14032 -1878 -108 150
18:00:02.898839 527.09 1264 3000 13968 -1972 -187 148
18:00:02.914615 527.1 1240 2944 13732 -2058 -274 180
18:00:02.923290 527.11 1424 2928 13892 -1975 -190 140
18:00:02.952414 527.12 1320 2932 14204 -1583 -101 70
18:00:02.959881 527.13 1340 2996 14432 -1425 47 74
18:00:02.960121 527.14 1296 2912 14112 -1521 1 60
18:00:02.960338 527.15 1220 2836 14056 -1698 -63 83
18:00:02.960542 527.16 1328 2772 14096 -1762 -189 110
18:00:03.012476 527.17 1280 2664 14192 -1490 -232 105
18:00:03.024272 527.18 1248 2720 14284 -1394 -40 105
18:00:03.024615 527.19 1136 2932 14220 -1913 88 166
18:00:03.024896 527.2 1388 2628 13720 -2670 -330 156
18:00:03.025167 527.21 1604 2612 14752 -1651 19 19
18:00:03.025446 527.22 1292 2760 14048 -1056 -339 35
18:00:03.033874 527.23 1304 2600 13840 -2034 -654 125
18:00:03.035672 527.24 1488 2452 14180 -1467 -3 48
18:00:03.056281 527.25 1140 2488 13952 -1572 -195 153
18:00:03.056417 527.26 1332 2436 13744 -2008 -490 179
18:00:03.061302 527.27 1556 2332 14112 -1212 -50 45
18:00:03.093502 527.28 1400 2676 14580 -547 65 17
18:00:03.095084 527.29 1340 2728 14636 -879 11 30
18:00:03.119916 527.3 1384 2620 14316 -1263 83 54
18:00:03.126699 527.31 1280 2492 14232 -1580 93 65
18:00:03.126814 527.32 1300 2468 14304 -1714 -14 89
18:00:03.129027 527.33 1464 2416 14204 -1790 -108 109
18:00:03.154446 527.34 1420 2368 14268 -1786 -62 60
18:00:03.162469 527.35 1452 2172 14032 -1747 -54 45
18:00:03.169278 527.36 1416 2188 13856 -1627 6 55
18:00:03.172338 527.37 1420 2132 13932 -1456 -44 53
18:00:03.219886 527.38 1548 1992 14032 -1037 -30 16
18:00:03.226250 527.39 1460 2020 14412 -764 6 4
18:00:03.226409 527.4 1528 2116 14384 -736 -59 19
18:00:03.226539 527.41 1492 2040 14348 -852 31 -8
18:00:03.227093 527.42 1488 2036 14224 -1011 23 16
18:00:03.234102 527.43 1444 2068 14220 -1120 1 -5
18:00:03.251259 527.44 1472 2008 14200 -1199 -91 24
18:00:03.264262 527.45 1520 1988 14148 -1201 -61 6
18:00:03.285153 527.46 1612 1972 14364 -1129 -19 -3
18:00:03.294877 527.47 1552 2000 14212 -1226 52 -14
18:00:03.295008 527.48 1596 1944 14232 -1181 -23 32
18:00:03.295092 527.49 1600 1876 14140 -1149 40 -17
18:00:03.312898 527.5 1552 1976 14308 -978 51 -12
18:00:03.357007 527.51 1472 1940 14236 -865 89 9
18:00:03.361724 527.52 1540 1940 14252 -737 127 -22
18:00:03.361875 527.53 1408 1892 14252 -791 4 1
18:00:03.362056 527.54 1528 1816 14412 -562 245 -1
18:00:03.362739 527.55 1444 1896 14116 -847 100 5
18:00:03.369220 527.56 1464 1800 14112 -1122 -45 68
18:00:03.386404 527.57 1672 1656 14256 -774 -54 39
18:00:03.395434 527.58 1528 1844 14176 -617 -93 -1
18:00:03.398963 527.59 1676 1836 14200 -439 33 -10
18:00:03.417033 527.6 1524 1792 14272 -487 85 -17
18:00:03.431009 527.61 1460 1748 14172 -563 47 -3
18:00:03.432034 527.62 1628 1804 14284 -561 -43 5
18:00:03.452134 527.63 1596 1752 14332 -594 40 22
18:00:03.461091 527.64 1544 1760 14328 -413 89 -25
18:00:03.481807 527.65 1704 1716 14172 -330 124 -17
18:00:03.500458 527.66 1584 1672 14256 -207 205 -35
18:00:03.500579 527.67 1640 1616 14264 -92 222 7
18:00:03.500675 527.68 1532 1668 14240 -59 267 3
18:00:03.503945 527.69 1572 1664 14088 -30 258 -2
18:00:03.529130 527.7 1532 1632 14132 134 232 3
18:00:03.530941 527.71 1620 1660 14188 257 261 -16
18:00:03.555185 527.72 1520 1744 14244 259 258 2
18:00:03.561944 527.73 1640 1628 14208 277 266 13
18:00:03.562124 527.74 1596 1712 14140 487 264 -34
18:00:03.564020 527.75 1592 1832 14196 644 311 -65
18:00:03.571870 527.76 1552 1776 14300 612 331 -39
18:00:03.593283 527.77 1640 1780 14136 523 348 9
18:00:03.603876 527.78 1492 1924 14348 439 299 36
18:00:03.606389 527.79 1520 1852 14384 507 372 4
18:00:03.625980 527.8 1472 1924 14300 531 362 -1
18:00:03.626070 527.81 1376 1860 14148 495 379 -12
18:00:03.654225 527.82 1524 1996 14260 532 306 -14
18:00:03.665719 527.83 1516 1880 14196 515 306 -12
18:00:03.665921 527.84 1524 1868 14192 512 277 -17
18:00:03.689961 527.85 1712 1964 14384 590 353 -13
18:00:03.697223 527.86 1492 1900 14292 611 351 -16
18:00:03.697376 527.87 1484 1964 14196 579 347 -2
18:00:03.719413 527.88 1520 2036 14260 556 342 5
18:00:03.727951 527.89 1556 2020 14232 607 358 -17
18:00:03.728119 527.9 1484 1932 14148 688 337 -52
18:00:03.728917 527.91 1564 1908 14160 664 357 -31
18:00:03.756263 527.92 1508 2032 14184 783 375 -25
18:00:03.772055 527.93 1612 2032 14276 864 410 -28
18:00:03.773109 527.94 1572 2000 14016 908 395 -46
18:00:03.793346 527.95 1508 2144 14120 919 401 -4
18:00:03.793518 527.96 1472 2168 14336 937 387 -48
18:00:03.793643 527.97 1600 2096 14172 1000 419 -42
18:00:03.803833 527.98 1480 2244 14272 1055 444 -44
18:00:03.821045 527.99 1440 2208 14236 965 401 -71
18:00:03.831013 528.0 1480 2260 14392 1038 386 -97
18:00:03.856784 528.01 1524 2288 14392 1053 429 -57
18:00:03.867557 528.02 1504 2332 14252 1081 477 -50
18:00:03.867764 528.03 1440 2312 14260 1094 483 -43
18:00:03.868004 528.04 1380 2284 14200 1020 446 -38
18:00:03.890867 528.05 1440 2416 14248 985 437 -51
18:00:03.900092 528.06 1376 2380 14120 925 413 -33
18:00:03.903808 528.07 1528 2432 14148 933 396 -49
18:00:03.905488 528.08 1488 2364 14080 1001 401 -40
18:00:03.926363 528.09 1492 2448 14184 1322 533 -74
18:00:03.935286 528.1 1472 2568 14372 1579 623 -109
18:00:03.957770 528.11 1236 2604 14232 1641 621 -103
18:00:03.969604 528.12 1372 2624 14088 1461 608 -99
18:00:03.969802 528.13 1304 2612 13924 1306 499 -58
18:00:03.970113 528.14 1252 2652 14116 1242 395 -51
18:00:03.990204 528.15 1484 2688 14320 1328 412 -49
18:00:04.001409 528.16 1336 2712 14188 1089 546 1
18:00:04.001593 528.17 1332 2828 13728 146 409 67
18:00:04.006346 528.18 1520 2508 14204 420 320 -40
18:00:04.024308 528.19 1564 2676 14860 1896 669 -160
18:00:04.035360 528.2 1292 2952 14184 1619 293 -67
18:00:04.057773 528.21 1460 2840 13960 761 230 -60
18:00:04.067935 528.22 1316 2764 14472 1287 741 -115
18:00:04.068106 528.23 1112 2940 13696 616 176 55
18:00:04.107759 528.24 1480 2740 13492 258 193 40
18:00:04.109159 528.25 1436 2756 14112 1182 460 -82
18:00:04.130103 528.26 1428 2980 14400 1609 328 -50
18:00:04.130264 528.27 1404 3064 14368 1391 354 -78
18:00:04.130398 528.28 1296 3116 14164 1157 419 -57
18:00:04.130529 528.29 1284 3148 14260 1054 444 -52
18:00:04.154806 528.3 1344 3268 14012 993 425 -20
18:00:04.164519 528.31 1324 3232 14136 887 444 -6
18:00:04.164645 528.32 1308 3236 14108 859 518 -66
18:00:04.165969 528.33 1280 3120 14132 828 481 -60
18:00:04.167583 528.34 1348 3212 13876 819 490 -45
18:00:04.207160 528.35 1276 3132 13856 906 429 -101
18:00:04.208070 528.36 1408 3160 14008 1130 337 -97
18:00:04.209254 528.37 1344 3200 14040 1234 414 -111
18:00:04.229141 528.38 1264 3128 14128 1206 384 -106
18:00:04.229261 528.39 1304 3252 14204 1133 439 -67
18:00:04.229349 528.4 1320 3328 14296 1004 430 -83
18:00:04.239563 528.41 1296 3340 14116 882 454 -56
18:00:04.264095 528.42 1184 3388 14140 820 434 -84
18:00:04.266168 528.43 1268 3372 13980 702 350 -61
18:00:04.285869 528.44 1292 3444 14036 707 339 -72
18:00:04.298040 528.45 1232 3416 14108 644 300 -41
18:00:04.300906 528.46 1252 3472 13956 590 321 -56
18:00:04.303132 528.47 1232 3444 14072 643 318 -81
18:00:04.323967 528.48 1204 3468 14140 713 320 -68
18:00:04.330567 528.49 1312 3588 13984 835 378 -72
18:00:04.337022 528.5 1204 3524 14004 932 370 -48
18:00:04.364694 528.51 1168 3584 14024 911 309 -110
18:00:04.367403 528.52 1200 3592 14288 1081 590 -132
18:00:04.367552 528.53 1076 3632 13980 965 501 -62
18:00:04.389213 528.54 1176 3572 13892 426 404 -20
18:00:04.399341 528.55 1192 3452 13852 244 315 -45
18:00:04.399470 528.56 1128 3440 13932 692 342 -91
18:00:04.425031 528.57 1264 3596 14128 928 314 -110
18:00:04.434914 528.58 1320 3628 13964 694 295 -79
18:00:04.435072 528.59 1264 3728 13936 526 312 -37
18:00:04.435167 528.6 1048 3724 13996 616 273 -24
18:00:04.441881 528.61 1220 3748 13892 619 196 -49
18:00:04.456753 528.62 1260 3760 13888 640 266 -26
18:00:04.522309 528.63 1164 3700 14028 704 320 -87
18:00:04.530154 528.64 1280 3680 13968 728 347 -81
18:00:04.530245 528.65 1236 3864 13828 711 366 -64
18:00:04.530310 528.66 1180 3856 13888 592 356 -68
18:00:04.530371 528.67 1176 3724 13860 501 342 -29
18:00:04.530430 528.68 1224 3816 14060 477 332 -35
18:00:04.530490 528.69 1128 3768 14080 617 316 -43
18:00:04.541314 528.7 1080 3852 14044 522 328 -71
18:00:04.543885 528.71 1152 3748 13932 395 302 -51
18:00:04.566190 528.72 1192 3904 13772 470 329 -72
18:00:04.586626 528.73 1216 3868 13900 515 346 -56
18:00:04.599799 528.74 968 3912 14044 481 361 -69
18:00:04.600920 528.75 1088 3940 14004 462 297 -72
18:00:04.602513 528.76 1032 4012 13884 446 245 -43
18:00:04.628081 528.77 1140 3972 14080 394 287 -47
18:00:04.634169 528.78 1112 3864 13976 371 294 -34
18:00:04.634362 528.79 1148 3916 13956 366 324 -35
18:00:04.636286 528.8 1068 4012 13880 366 331 -49
18:00:04.661081 528.81 1080 4064 13824 330 287 -23
18:00:04.665631 528.82 1160 4104 13916 324 310 -31
18:00:04.676254 528.83 1060 4024 13748 368 309 -27
18:00:04.677872 528.84 1168 4028 14028 389 325 -25
18:00:04.697923 528.85 1080 4100 13860 304 315 -32
18:00:04.727963 528.86 1156 4036 13904 318 297 -34
18:00:04.731532 528.87 1172 3980 13880 286 318 -66
18:00:04.731719 528.88 1164 4004 13936 273 298 -38
18:00:04.734415 528.89 1124 4028 13936 297 302 -30
18:00:04.735374 528.9 1140 4004 13952 232 288 -46
18:00:04.756947 528.91 1164 4044 13996 283 339 -30
18:00:04.796650 528.92 1072 4056 13816 264 314 -49
18:00:04.799611 528.93 1296 4088 13920 209 281 -19
18:00:04.827911 528.94 1168 4020 13956 224 288 -37
18:00:04.832740 528.95 1032 4140 13756 194 291 -27
18:00:04.833011 528.96 992 4172 13848 178 289 -16
18:00:04.833291 528.97 1232 4188 13828 165 288 -59
18:00:04.833577 528.98 1120 4084 13932 175 279 -52
18:00:04.841685 528.99 1192 4176 13912 157 264 -27
18:00:04.844225 529.0 1028 4112 13784 144 288 -30
18:00:04.860667 529.01 1064 4096 13888 119 290 -24
18:00:04.891740 529.02 1048 4156 13788 79 278 -40
18:00:04.899753 529.03 1080 4060 13896 59 245 -22
18:00:04.899923 529.04 1056 4172 13820 24 275 -34
18:00:04.900119 529.05 1056 4244 13796 -9 270 -46
18:00:04.921172 529.06 1188 4072 13868 -27 264 -24
18:00:04.945873 529.07 1176 4148 13836 -19 285 -32
18:00:04.966365 529.08 1112 4060 13868 -27 276 -29
18:00:04.966491 529.09 1172 4284 13928 -65 292 -29
18:00:04.966586 529.1 1184 4084 13776 -67 284 -16
18:00:04.966679 529.11 1168 4112 13844 -79 278 -14
18:00:04.976109 529.12 1024 4136 13864 -96 251 -10
18:00:04.977741 529.13 1048 4184 13932 -111 248 -35
18:00:05.026155 529.14 1116 4276 13860 -117 264 -36
18:00:05.033639 529.15 1156 4068 13984 -129 284 -16
18:00:05.033788 529.16 1056 4180 13892 -184 276 -24
18:00:05.039547 529.17 1204 4140 13960 -250 272 12
18:00:05.040655 529.18 1064 4228 13860 -452 230 8
18:00:05.041846 529.19 1060 4172 13816 -609 154 15
18:00:05.058680 529.2 1084 4168 13844 -706 175 13
18:00:05.068804 529.21 1220 4112 14052 -600 291 -23
18:00:05.073374 529.22 1164 4256 14000 -592 341 -54
18:00:05.075921 529.23 1096 4160 14016 -748 291 -40
18:00:05.095315 529.24 1104 4232 13916 -943 232 6
18:00:05.167838 529.25 1128 4044 13796 -1089 103 51
18:00:05.168903 529.26 1100 3936 13664 -1123 -6 64
18:00:05.170156 529.27 1252 4060 14112 -1029 -41 93
18:00:05.171242 529.28 1152 4048 13784 -1460 111 192
18:00:05.173981 529.29 1076 3908 13416 -2072 -226 242
18:00:05.175230 529.3 1392 3828 14296 -1044 182 53
18:00:05.199710 529.31 1156 4124 14164 -300 219 19
18:00:05.205541 529.32 1116 4036 13660 -1367 -232 138
18:00:05.205832 529.33 1080 3892 13848 -1375 67 140
18:00:05.206071 529.34 1072 3840 13524 -1610 -93 193
18:00:05.228578 529.35 1116 3732 13616 -1822 -311 246
18:00:05.236736 529.36 1216 3664 13808 -1180 -231 174
18:00:05.236885 529.37 1292 3740 14108 -792 -173 135
18:00:05.291584 529.38 1216 3920 14256 -991 -227 133
18:00:05.302740 529.39 1084 3904 14164 -1396 -187 201
18:00:05.302917 529.4 1068 3944 14204 -1635 -132 195
18:00:05.303169 529.41 1116 3720 13996 -1605 -48 235
18:00:05.303422 529.42 1192 3848 13988 -1434 -54 196
18:00:05.303790 529.43 1244 3628 14212 -1434 76 146
18:00:05.304209 529.44 1196 3692 13924 -1584 106 139
18:00:05.313471 529.45 1220 3508 13884 -1783 89 147
18:00:05.315208 529.46 1260 3432 13956 -1667 -109 171
18:00:05.388133 529.47 1264 3388 13876 -1400 -171 193
18:00:05.407267 529.48 1376 3404 14240 -1210 -61 129
18:00:05.407385 529.49 1352 3532 14088 -1200 -23 149
18:00:05.407460 529.5 1244 3392 14304 -1373 88 99
18:00:05.407534 529.51 1264 3256 14032 -1576 41 148
18:00:05.407606 529.52 1132 3276 14112 -1703 26 156
18:00:05.412746 529.53 1276 3256 14044 -1719 -55 200
18:00:05.416205 529.54 1312 3296 14080 -1675 -111 181
18:00:05.436043 529.55 1372 3232 14036 -1717 -85 179
18:00:05.437163 529.56 1300 3212 14024 -1661 -109 149
18:00:05.513993 529.57 1296 3084 14104 -1610 -53 159
18:00:05.529488 529.58 1260 3300 14156 -1545 -43 116
18:00:05.537560 529.59 1232 3080 14096 -1497 29 129
18:00:05.537726 529.6 1376 3192 14116 -1427 51 109
18:00:05.537875 529.61 1256 3104 14032 -1321 71 82
18:00:05.538123 529.62 1228 3072 14300 -1224 46 128
18:00:05.538321 529.63 1380 2948 14228 -1236 -24 61
18:00:05.538575 529.64 1260 3080 14152 -1176 81 129
18:00:05.538826 529.65 1236 2924 14088 -1463 -49 161
18:00:05.539066 529.66 1400 2900 13676 -1798 -138 152
18:00:05.539223 529.67 1400 2756 14056 -1256 -48 55
18:00:05.566850 529.68 1352 2840 14176 -917 -108 43
18:00:05.625456 529.69 1400 2888 14224 -1126 -128 57
18:00:05.635447 529.7 1448 2812 14052 -1455 -82 93
18:00:05.635642 529.71 1332 2944 14240 -1453 -91 85
18:00:05.640718 529.72 1504 2828 14280 -1349 -149 56
18:00:05.642036 529.73 1524 2852 14216 -1348 -93 57
18:00:05.643143 529.74 1444 2804 14264 -1363 6 24
18:00:05.644405 529.75 1420 2724 14176 -1283 -22 13
18:00:05.648502 529.76 1392 2756 14236 -1365 43 22
18:00:05.651781 529.77 1396 2684 14184 -1423 28 31
18:00:05.671696 529.78 1436 2488 14172 -1460 -24 53
18:00:05.671894 529.79 1420 2536 14204 -1584 -64 59
18:00:05.672447 529.8 1484 2528 14116 -1476 -42 -1
18:00:05.728233 529.81 1432 2484 14160 -1356 -137 52
18:00:05.742071 529.82 1456 2476 13960 -1338 -102 -13
18:00:05.742325 529.83 1468 2456 14052 -1292 -112 39
18:00:05.759853 529.84 1508 2440 14148 -1157 -43 30
18:00:05.777792 529.85 1480 2332 14076 -1142 -44 45
18:00:05.777914 529.86 1456 2332 14268 -1131 -39 -3
18:00:05.778121 529.87 1336 2416 14124 -1199 -35 44
18:00:05.778353 529.88 1544 2316 14164 -1278 -13 43
18:00:05.833891 529.89 1512 2312 14200 -1328 24 32
18:00:05.845000 529.9 1300 2268 14268 -1252 3 35
18:00:05.845193 529.91 1492 2388 14244 -1159 -15 42
18:00:05.845334 529.92 1476 2348 14192 -1096 -27 8
18:00:05.845466 529.93 1636 2228 14268 -1096 -13 32
18:00:05.845593 529.94 1532 2288 14336 -1030 52 4
18:00:05.845718 529.95 1504 2160 14256 -1079 -23 19
18:00:05.845840 529.96 1536 2140 14208 -1101 -13 14
18:00:05.845963 529.97 1420 2196 14260 -1064 31 12
18:00:05.847870 529.98 1600 2156 14124 -1054 -13 19
18:00:05.868588 529.99 1620 2132 14384 -1028 35 -34
18:00:05.877818 530.0 1528 2120 14268 -965 74 16
18:00:05.898608 530.01 1644 2056 14184 -938 26 29
18:00:05.911350 530.02 1496 2024 14280 -859 2 14
18:00:05.934455 530.03 1564 1992 14204 -921 36 -3
18:00:05.945798 530.04 1664 2056 14344 -931 22 22
18:00:05.946117 530.05 1512 1932 14120 -885 40 -5
18:00:05.946349 530.06 1556 2008 14204 -820 2 7
18:00:05.950083 530.07 1540 1940 14216 -771 20 -25
18:00:05.969779 530.08 1616 1868 14296 -735 46 33
18:00:05.980203 530.09 1648 1960 14228 -731 66 16
18:00:05.980403 530.1 1568 1916 14212 -674 58 13
18:00:06.011160 530.11 1492 1896 14152 -626 78 4
18:00:06.014456 530.12 1604 1916 14168 -563 83 17
18:00:06.026396 530.13 1580 1900 14308 -548 104 47
18:00:06.040866 530.14 1592 1844 14172 -487 107 51
18:00:06.060388 530.15 1584 1856 14068 -452 53 16
18:00:06.074275 530.16 1524 1860 14264 -407 141 18
18:00:06.074533 530.17 1512 1832 14196 -295 114 36
18:00:06.074810 530.18 1776 1844 14316 -223 125 33
18:00:06.075126 530.19 1608 1816 14264 -67 177 26
18:00:06.086034 530.2 1564 1928 14232 -16 204 5
18:00:06.114320 530.21 1616 1924 14248 19 197 8
18:00:06.115191 530.22 1660 1824 14184 9 160 15
18:00:06.115708 530.23 1604 1916 14120 -30 172 51
18:00:06.116128 530.24 1572 1816 14272 249 295 2
18:00:06.149867 530.25 1588 1844 14356 536 417 -41
18:00:06.150903 530.26 1636 1856 14484 560 394 -56
18:00:06.151855 530.27 1516 1976 14260 466 333 -39
18:00:06.172902 530.28 1452 1800 13996 419 258 2
18:00:06.179940 530.29 1564 1876 13988 493 199 0
18:00:06.180093 530.3 1628 2028 14364 718 269 -30
18:00:06.182264 530.31 1664 2056 14540 700 433 -33
18:00:06.206467 530.32 1472 2192 14040 -59 452 61
18:00:06.208115 530.33 1576 1992 13744 -502 78 89
18:00:06.236596 530.34 1900 1892 14868 1123 625 -100
18:00:06.249656 530.35 1552 2132 14384 1398 211 -104
18:00:06.249822 530.36 1528 2076 13904 226 -115 16
18:00:06.249943 530.37 1728 1848 14404 1009 467 -66
18:00:06.266278 530.38 1480 2168 13964 866 332 2
18:00:06.280555 530.39 1408 2004 13676 107 -107 113
18:00:06.313962 530.4 1612 1908 13992 928 370 24
18:00:06.323406 530.41 1680 2152 14472 1573 522 -51
18:00:06.323902 530.42 1532 2336 14588 1554 585 -53
18:00:06.336277 530.43 1548 2376 14400 1208 537 -45
18:00:06.346167 530.44 1556 2420 14296 696 394 14
18:00:06.346284 530.45 1488 2392 14216 551 401 13
18:00:06.369351 530.46 1472 2380 14368 514 361 -6
18:00:06.376968 530.47 1564 2380 14092 573 409 -28
18:00:06.377136 530.48 1516 2220 14116 548 379 14
18:00:06.377383 530.49 1532 2264 14096 549 397 -5
18:00:06.386350 530.5 1464 2256 13800 703 387 -13
18:00:06.415423 530.51 1636 2316 14076 1021 398 -68
18:00:06.415529 530.52 1588 2260 14160 1382 433 -69
18:00:06.450733 530.53 1596 2416 14280 1445 448 -72
18:00:06.452047 530.54 1568 2488 14396 1351 511 -84
18:00:06.453122 530.55 1448 2416 14272 1267 494 -65
18:00:06.470290 530.56 1520 2476 14340 1180 445 -67
18:00:06.479968 530.57 1604 2516 14060 1097 438 -83
18:00:06.480102 530.58 1488 2552 14204 1016 369 -35
18:00:06.484117 530.59 1504 2568 14156 980 340 -51
18:00:06.485294 530.6 1452 2536 14016 914 406 -57
18:00:06.524635 530.61 1512 2660 14100 841 418 -46
18:00:06.526461 530.62 1488 2720 14152 928 437 -67
18:00:06.547501 530.63 1432 2728 14208 991 440 -56
18:00:06.548001 530.64 1456 2732 14292 1189 521 -85
18:00:06.548880 530.65 1364 2932 14232 1167 482 -111
18:00:06.550200 530.66 1332 2744 14368 1154 569 -105
18:00:06.609032 530.67 1396 2804 14088 997 639 -48
18:00:06.610915 530.68 1472 2932 13932 496 388 -21
18:00:06.611018 530.69 1496 2860 13972 634 430 -65
18:00:06.691160 530.7 1408 2848 13928 844 384 -85
18:00:06.712783 530.71 1396 2824 14044 941 270 -76
18:00:06.713569 530.72 1496 2872 14224 1242 429 -100
18:00:06.714322 530.73 1392 3008 14180 1085 336 -62
18:00:06.714768 530.74 1308 3120 14048 933 375 -80
18:00:06.715048 530.75 1360 3016 14008 925 347 -51
18:00:06.715432 530.76 1420 3004 14164 826 347 -73
18:00:06.715793 530.77 1416 3012 14180 934 372 -120
18:00:06.743553 530.78 1396 3124 14052 1082 398 -83
18:00:06.746031 530.79 1328 3212 14124 1114 406 -127
18:00:06.746183 530.8 1400 3128 13960 1030 460 -84
18:00:06.780512 530.81 1364 3148 13984 915 426 -95
18:00:06.788764 530.82 1348 3060 14008 944 375 -88
18:00:06.789202 530.83 1376 3168 14164 1047 407 -99
18:00:06.789750 530.84 1344 3352 14044 983 398 -96
18:00:06.790319 530.85 1392 3168 13992 773 395 -107
18:00:06.790835 530.86 1388 3240 14068 878 464 -93
18:00:06.791627 530.87 1292 3292 13992 962 459 -102
18:00:06.792264 530.88 1264 3300 14116 1021 396 -84
18:00:06.806281 530.89 1348 3264 14008 920 388 -75
18:00:06.830999 530.9 1196 3276 14064 792 373 -67
18:00:06.845113 530.91 1308 3320 13948 895 370 -56
18:00:06.845348 530.92 1416 3420 13952 900 401 -94
18:00:06.845587 530.93 1236 3488 13972 884 430 -103
18:00:06.845813 530.94 1280 3500 14016 844 429 -86
18:00:06.864182 530.95 1376 3560 14036 842 481 -74
18:00:06.878453 530.96 1316 3460 13992 767 402 -86
18:00:06.880961 530.97 1332 3592 14208 803 391 -112
18:00:06.882007 530.98 1232 3492 14112 843 419 -46
18:00:06.934738 530.99 1192 3516 14056 707 426 -76
18:00:06.943845 531.0 1324 3576 13876 709 300 -100
18:00:06.944003 531.01 1396 3540 13896 640 349 -53
18:00:06.944161 531.02 1276 3620 13816 592 306 -40
18:00:06.945093 531.03 1152 3660 14044 634 317 -59
18:00:06.946360 531.04 1220 3628 13852 695 316 -36
18:00:06.947580 531.05 1124 3696 13964 711 298 -76
18:00:06.953981 531.06 1232 3668 13924 699 377 -93
18:00:06.978671 531.07 1364 3792 14076 666 360 -70
18:00:06.980022 531.08 1260 3744 13964 616 386 -75
18:00:07.003053 531.09 1280 3736 13920 569 352 -86
18:00:07.010864 531.1 1280 3708 13968 525 370 -107
18:00:07.015822 531.11 1228 3788 13856 520 325 -70
18:00:07.017555 531.12 1160 3728 13884 497 325 -81
18:00:07.038603 531.13 1312 3656 14068 482 313 -65
18:00:07.047070 531.14 1172 3784 13908 478 299 -51
18:00:07.051180 531.15 1308 3832 14028 524 301 -71
18:00:07.075437 531.16 1188 3772 13980 521 344 -54
18:00:07.104680 531.17 1156 3864 13884 462 281 -40
18:00:07.112886 531.18 1272 3812 14040 452 340 -45
18:00:07.113003 531.19 1316 3828 14060 443 323 -46
18:00:07.113092 531.2 1244 3976 14008 435 337 -68
18:00:07.121140 531.21 1228 3956 13964 455 364 -69
18:00:07.122819 531.22 1220 3948 14036 424 417 -45
18:00:07.144604 531.23 1288 3920 13952 462 376 -50
18:00:07.163865 531.24 1204 3952 13988 307 362 -37
18:00:07.182008 531.25 1204 3900 13692 210 285 -35
18:00:07.182325 531.26 1256 3900 13776 170 262 -26
18:00:07.182555 531.27 1168 3896 13936 174 295 -45
18:00:07.182774 531.28 1172 3944 14040 434 419 -59
18:00:07.200115 531.29 1268 3988 14092 535 442 -89
18:00:07.222944 531.3 1192 4108 13972 415 416 -71
18:00:07.244156 531.31 1080 4032 13704 230 377 -78
18:00:07.244282 531.32 1276 4064 13948 151 287 -49
18:00:07.244362 531.33 1184 4024 13964 201 221 -58
18:00:07.256722 531.34 1148 3956 14088 38 227 15
18:00:07.257492 531.35 1132 4064 13556 -582 308 85
18:00:07.331506 531.36 1256 3908 13848 -486 148 18
18:00:07.344274 531.37 1376 4080 14508 668 587 -68
18:00:07.344387 531.38 1072 4292 14232 499 234 -98
18:00:07.344462 531.39 1104 4088 13672 -233 23 20
18:00:07.344571 531.4 1172 4076 13744 -116 246 13
18:00:07.344701 531.41 1068 3976 13568 -478 29 99
18:00:07.359375 531.42 1144 3868 13520 -419 18 105
18:00:07.379899 531.43 1228 3956 13744 37 127 56
18:00:07.380170 531.44 1316 4080 14012 206 20 19
18:00:07.380347 531.45 1208 4004 14088 138 -68 36
18:00:07.380537 531.46 1192 4116 13932 -133 -15 69
18:00:07.380695 531.47 1176 4052 14048 -174 50 79
18:00:07.391750 531.48 1196 4128 13912 -58 140 11
18:00:07.411294 531.49 1180 4060 13944 27 199 16
18:00:07.442408 531.5 1184 4092 13928 117 285 -32
18:00:07.447359 531.51 1276 4152 13756 120 346 -63
18:00:07.447463 531.52 1184 4032 13792 128 328 -28
18:00:07.447536 531.53 1152 4104 13876 284 290 -20
18:00:07.449401 531.54 1224 4048 13892 340 223 -34
18:00:07.477296 531.55 1280 4084 13968 362 251 -43
18:00:07.480719 531.56 1240 4112 13996 206 249 -28
18:00:07.480875 531.57 1156 4096 14004 140 273 -22
18:00:07.500977 531.58 1148 4044 13928 41 315 -30
18:00:07.516811 531.59 1116 4132 13932 -84 302 -30
18:00:07.536992 531.6 1252 4068 13808 -65 262 -32
18:00:07.548805 531.61 1188 4156 13900 -92 275 -57
18:00:07.549098 531.62 1220 4040 13828 -134 291 -8
18:00:07.560533 531.63 1188 4028 13844 -146 289 -3
18:00:07.582350 531.64 1172 4184 13720 -126 241 1
18:00:07.582586 531.65 1204 4192 13784 -90 247 -8
18:00:07.582790 531.66 1308 4052 13752 -45 249 -11
18:00:07.593698 531.67 1056 4124 13968 -1 265 -21
18:00:07.616152 531.68 1188 4208 13960 12 296 -24
18:00:07.619012 531.69 1192 4256 13896 -10 249 -31
18:00:07.620096 531.7 1204 4148 14000 83 324 -63
18:00:07.638101 531.71 1088 4164 13968 148 535 -76
18:00:07.657484 531.72 1184 4148 13636 -428 252 26
18:00:07.658833 531.73 1168 3988 13756 -380 302 -5
18:00:07.659345 531.74 1276 4072 14012 116 335 -76
18:00:07.673827 531.75 1124 4112 13920 43 247 -40
18:00:07.682373 531.76 1104 4160 13948 -123 221 -29
18:00:07.691322 531.77 1124 4128 13740 -310 210 20
18:00:07.693652 531.78 1164 4280 14016 -341 140 18
18:00:07.743708 531.79 1200 4196 13808 -302 70 44
18:00:07.753808 531.8 1236 4208 13884 -369 136 22
18:00:07.753907 531.81 1152 4144 13980 -398 157 19
18:00:07.753971 531.82 1236 4236 13972 -410 147 4
18:00:07.754035 531.83 1136 4296 14068 -608 145 35
18:00:07.756494 531.84 1196 4092 13920 -687 125 49
18:00:07.778776 531.85 1024 4088 13840 -722 98 80
18:00:07.810481 531.86 1160 4012 13800 -776 3 74
18:00:07.827214 531.87 1192 4152 13952 -795 13 91
18:00:07.827500 531.88 1148 4052 13920 -1005 -33 148
18:00:07.827996 531.89 1164 4000 13876 -1151 -30 137
18:00:07.830695 531.9 1212 3920 13880 -1140 -12 103
18:00:07.859280 531.91 1216 4032 14024 -1143 63 100
18:00:07.859725 531.92 1184 3976 13904 -1212 79 99
18:00:07.859994 531.93 1220 3896 13876 -1374 49 132
18:00:07.883700 531.94 1200 3944 13812 -1485 9 155
18:00:07.886995 531.95 1224 3884 13832 -1556 -27 165
18:00:07.887430 531.96 1168 3812 14080 -1516 -7 167
18:00:07.891362 531.97 1192 3804 14040 -1422 -28 184
18:00:07.930303 531.98 1140 3768 13880 -1450 -58 152
18:00:07.944482 531.99 1112 3732 14004 -1530 -27 147
18:00:07.946055 532.0 1248 3748 13936 -1574 23 132
18:00:07.965808 532.01 1204 3732 13980 -1557 -12 144
18:00:07.966659 532.02 1372 3624 14004 -1632 -22 158
18:00:07.967559 532.03 1188 3640 14040 -1638 -14 189
18:00:07.984988 532.04 1312 3628 13912 -1749 17 159
18:00:07.994632 532.05 1252 3584 13888 -1744 -10 169
18:00:07.995153 532.06 1248 3420 13896 -1724 -45 166
18:00:07.996306 532.07 1244 3324 14076 -1741 -49 175
18:00:08.013804 532.08 1420 3368 14044 -1675 -62 154
18:00:08.021947 532.09 1364 3440 14068 -1636 -48 182
18:00:08.036542 532.1 1332 3376 14012 -1724 -55 140
18:00:08.043770 532.11 1312 3356 14088 -1670 -65 178
18:00:08.049229 532.12 1420 3288 14152 -1702 -42 181
18:00:08.077163 532.13 1420 3320 14140 -1793 -84 184
18:00:08.078094 532.14 1336 3196 14020 -1934 -128 169
18:00:08.079694 532.15 1368 3092 13916 -2018 -133 192
18:00:08.102310 532.16 1328 3104 14032 -1850 -120 149
18:00:08.102560 532.17 1344 3104 14084 -1812 -111 179
18:00:08.113828 532.18 1296 3128 14264 -1788 -82 123
18:00:08.122735 532.19 1332 3056 14112 -1778 -92 134
18:00:08.123692 532.2 1376 2924 14204 -1747 -87 114
18:00:08.131505 532.21 1440 2948 14116 -1779 -110 111
18:00:08.155969 532.22 1452 2884 14060 -1809 -108 129
18:00:08.157036 532.23 1356 2832 14020 -1719 -120 124
18:00:08.171614 532.24 1380 2704 14112 -1631 -121 112
18:00:08.183432 532.25 1424 2840 14244 -1513 -65 102
18:00:08.191386 532.26 1492 2852 14016 -1505 -14 70
18:00:08.208820 532.27 1384 2728 14296 -1447 -82 77
18:00:08.217564 532.28 1372 2752 14136 -1601 -83 84
18:00:08.217711 532.29 1488 2792 14052 -1822 -117 101
18:00:08.229043 532.3 1384 2600 13960 -1927 -166 86
18:00:08.252156 532.31 1440 2548 14092 -1692 -182 101
18:00:08.252276 532.32 1540 2552 14356 -1403 -32 74
18:00:08.275979 532.33 1424 2556 14420 -1177 94 4
18:00:08.285044 532.34 1432 2644 14264 -1205 21 10
18:00:08.290967 532.35 1436 2588 14248 -1370 -60 47
18:00:08.293844 532.36 1420 2432 14036 -1463 -109 70
18:00:08.309714 532.37 1552 2384 14112 -1358 -185 60
18:00:08.317920 532.38 1504 2416 14412 -1114 -53 71
18:00:08.326580 532.39 1556 2472 14184 -1522 128 113
18:00:08.355120 532.4 1548 2388 13448 -2540 -202 172
18:00:08.357135 532.41 1796 2040 14744 -1531 13 2
18:00:08.357308 532.42 1712 2280 14572 -314 98 -46
18:00:08.364231 532.43 1504 2364 13640 -1639 -661 124
18:00:08.389203 532.44 1704 2024 14268 -1313 -29 6
18:00:08.389512 532.45 1384 2260 13880 -1185 -78 77
18:00:08.415023 532.46 1532 2056 13788 -1754 -445 152
18:00:08.429454 532.47 1600 2016 14148 -1087 -20 78
18:00:08.429660 532.48 1648 2192 14632 -527 144 12
18:00:08.429739 532.49 1564 2160 14672 -664 119 -17
18:00:08.448712 532.5 1492 2332 14484 -1033 28 22
18:00:08.454705 532.51 1596 2148 14488 -1455 30 49
18:00:08.465474 532.52 1616 2216 14280 -1564 -36 108
18:00:08.475115 532.53 1684 2072 14220 -1676 -5 38
18:00:08.498009 532.54 1672 1992 13984 -1597 -11 42
18:00:08.504947 532.55 1636 1844 14136 -1474 -1 63
18:00:08.508411 532.56 1580 1888 13792 -1326 -34 36
18:00:08.509508 532.57 1632 1812 14004 -1129 -14 22
18:00:08.527345 532.58 1672 1784 14148 -845 -3 44
18:00:08.539374 532.59 1684 1848 14344 -338 -16 14
18:00:08.544122 532.6 1608 1856 14448 -398 25 -6
18:00:08.562086 532.61 1664 1820 14384 -583 58 15
18:00:08.571655 532.62 1660 1860 14192 -595 147 17
18:00:08.571910 532.63 1620 1900 14208 -727 130 -3
18:00:08.581321 532.64 1616 1812 14184 -691 105 8
18:00:08.604154 532.65 1680 1716 14052 -825 30 37
18:00:08.604401 532.66 1576 1712 14152 -729 29 14
18:00:08.632374 532.67 1616 1744 14152 -665 118 6
18:00:08.638205 532.68 1708 1784 13936 -725 131 -3
18:00:08.638477 532.69 1716 1732 14256 -454 124 14
18:00:08.641194 532.7 1720 1876 14096 -340 192 -18
18:00:08.648966 532.71 1688 1740 14312 -235 239 -35
18:00:08.670969 532.72 1632 1768 14484 6 197 13
18:00:08.671236 532.73 1604 1848 14292 -69 145 25
18:00:08.679148 532.74 1688 1736 14468 319 390 -26
18:00:08.698009 532.75 1592 1780 14184 189 287 22
18:00:08.706351 532.76 1656 1660 13948 -232 178 75
18:00:08.708680 532.77 1764 1700 13992 357 312 -2
18:00:08.723881 532.78 1732 1776 14160 382 250 -17
18:00:08.740978 532.79 1668 1676 14256 524 220 -31
18:00:08.742934 532.8 1732 1836 14236 704 344 -16
18:00:08.746360 532.81 1668 1824 14284 601 314 -14
18:00:08.761471 532.82 1696 1804 14188 679 297 -18
18:00:08.771908 532.83 1652 1928 14160 625 256 -22
18:00:08.784076 532.84 1680 1836 14412 731 304 -54
18:00:08.802051 532.85 1672 1900 14348 843 371 -46
18:00:08.802964 532.86 1616 1928 14236 821 374 -52
18:00:08.828277 532.87 1588 1952 14176 793 429 -45
18:00:08.835825 532.88 1572 1992 14288 718 415 -64
18:00:08.836049 532.89 1568 1908 14304 688 348 -50
18:00:08.843642 532.9 1684 1948 14244 677 295 -59
18:00:08.858980 532.91 1584 2068 14308 751 319 -23
18:00:08.890744 532.92 1544 1972 14112 760 256 -17
18:00:08.904521 532.93 1644 2016 14180 761 351 -42
18:00:08.909688 532.94 1624 2060 14172 886 375 -28
18:00:08.911057 532.95 1512 2056 14280 1127 381 -72
18:00:08.912313 532.96 1560 2152 14300 1167 332 -27
18:00:08.928408 532.97 1640 2148 14144 1119 380 -48
18:00:08.937076 532.98 1664 2212 14108 1086 444 -42
18:00:08.941218 532.99 1656 2280 14292 1097 479 -28
18:00:08.966295 533.0 1596 2244 14140 1136 502 -50
18:00:08.970081 533.01 1492 2300 14236 1107 477 -30
18:00:08.981346 533.02 1556 2420 14256 1150 494 -60
18:00:08.982498 533.03 1568 2384 14136 1160 474 -70
18:00:09.003648 533.04 1540 2408 14284 1110 458 -74
18:00:09.006130 533.05 1536 2488 14352 1132 495 -62
18:00:09.026071 533.06 1484 2464 14164 1147 471 -74
18:00:09.043225 533.07 1632 2484 14084 1039 438 -50
18:00:09.046762 533.08 1552 2484 14208 1022 444 -79
18:00:09.067914 533.09 1400 2468 14272 1074 423 -36
18:00:09.074802 533.1 1512 2620 14188 1127 416 -67
18:00:09.075001 533.11 1480 2484 14272 1079 441 -52
18:00:09.076061 533.12 1424 2616 14160 994 450 -96
18:00:09.101528 533.13 1632 2568 14248 994 404 -52
18:00:09.106980 533.14 1544 2600 14180 932 455 -73
18:00:09.175422 533.15 1648 2620 14140 996 401 -66
18:00:09.176689 533.16 1568 2708 14212 1156 440 -96
18:00:09.181191 533.17 1488 2732 14080 1081 409 -63
18:00:09.192361 533.18 1428 2744 14184 1038 418 -108
18:00:09.209345 533.19 1560 2640 14144 1125 441 -127
18:00:09.209627 533.2 1532 2800 14016 1108 445 -78
18:00:09.209932 533.21 1452 2816 14096 1129 437 -112
18:00:09.210228 533.22 1540 2836 14216 1160 459 -68
18:00:09.210582 533.23 1440 2828 14264 1166 506 -87
18:00:09.225643 533.24 1408 2936 14232 1141 531 -81
18:00:09.240496 533.25 1440 2996 14188 1033 493 -63
18:00:09.240950 533.26 1448 2996 13996 776 462 -56
18:00:09.247998 533.27 1400 3052 14020 691 385 -55
18:00:09.248994 533.28 1572 2912 14076 758 421 -70
18:00:09.250514 533.29 1372 2996 14072 968 483 -92
18:00:09.281707 533.3 1396 3032 14148 1152 514 -130
18:00:09.283919 533.31 1440 3064 14152 1098 525 -72
18:00:09.300910 533.32 1388 3148 14100 859 422 -112
18:00:09.306652 533.33 1388 3100 14088 814 403 -100
18:00:09.306753 533.34 1436 3036 14124 907 271 -52
18:00:09.317294 533.35 1452 3196 14176 878 401 -29
18:00:09.332784 533.36 1332 3340 13584 4 430 82
18:00:09.359543 533.37 1508 3080 13900 171 290 -26
18:00:09.392430 533.38 1648 3180 14692 1552 719 -208
18:00:09.409702 533.39 1304 3408 14096 1145 146 -77
18:00:09.409871 533.4 1432 3236 13900 390 109 -7
18:00:09.410067 533.41 1424 3236 13960 728 465 -61
18:00:09.410242 533.42 1276 3152 13476 147 20 80
18:00:09.410413 533.43 1476 3100 13636 175 121 49
18:00:09.415969 533.44 1464 3168 14124 905 252 -75
18:00:09.417430 533.45 1504 3296 14332 1126 107 -74
18:00:09.431108 533.46 1564 3424 14452 1024 95 -57
18:00:09.443317 533.47 1304 3520 14204 688 175 -76
18:00:09.454071 533.48 1188 3636 14300 518 271 -37
18:00:09.476517 533.49 1392 3484 13952 561 318 -43
18:00:09.476630 533.5 1240 3536 13944 642 343 -14
18:00:09.477555 533.51 1372 3600 13840 658 389 -49
18:00:09.501139 533.52 1292 3480 13808 573 363 -64
18:00:09.512219 533.53 1464 3408 13908 594 314 -68
18:00:09.512327 533.54 1452 3556 13976 922 232 -55
18:00:09.519461 533.55 1444 3492 13940 1007 222 -80
18:00:09.541319 533.56 1492 3508 14128 1007 335 -119
18:00:09.541538 533.57 1364 3540 14124 929 331 -50
18:00:09.562621 533.58 1464 3556 14140 784 391 -73
18:00:09.574159 533.59 1420 3688 14008 696 421 -70
18:00:09.599894 533.6 1336 3684 14056 598 406 -86
18:00:09.606833 533.61 1440 3640 13944 516 394 -60
18:00:09.607175 533.62 1284 3700 14076 446 373 -85
18:00:09.609726 533.63 1316 3620 13868 398 318 -79
18:00:09.618500 533.64 1356 3684 13740 383 325 -52
18:00:09.640916 533.65 1340 3736 13944 374 322 -83
18:00:09.641390 533.66 1288 3724 13992 443 320 -79
18:00:09.656607 533.67 1340 3764 14008 522 375 -71
18:00:09.676930 533.68 1348 3792 13840 595 412 -79
18:00:09.677033 533.69 1376 3788 14032 627 389 -96
18:00:09.677096 533.7 1172 3896 13912 509 344 -88
18:00:09.695562 533.71 1308 3748 14136 768 721 -164
18:00:09.710117 533.72 1296 3820 13956 297 441 -67
18:00:09.719717 533.73 1188 3732 13608 -170 405 -65
18:00:09.741805 533.74 1316 3684 13772 131 410 -88
18:00:09.742040 533.75 1284 3896 13960 559 396 -100
18:00:09.742251 533.76 1268 3796 14208 416 270 -75
18:00:09.753493 533.77 1296 3888 13820 249 256 -69
18:00:09.776582 533.78 1284 3804 13956 156 235 -48
18:00:09.776731 533.79 1344 3904 13916 193 174 -15
18:00:09.776840 533.8 1340 4036 13976 250 185 7
18:00:09.804053 533.81 1332 3936 13896 283 197 10
18:00:09.815921 533.82 1368 3936 14016 362 275 -30
18:00:09.816019 533.83 1276 3992 13992 397 274 -70
18:00:09.816084 533.84 1376 3900 13864 368 308 -42
18:00:09.831449 533.85 1272 4008 13904 298 336 -68
18:00:09.844966 533.86 1204 3904 13976 254 312 -59
18:00:09.851251 533.87 1340 3916 13916 283 281 -42
18:00:09.852636 533.88 1296 3972 13912 352 259 -50
18:00:09.864052 533.89 1216 3792 13732 239 225 -31
18:00:09.877135 533.9 1208 3936 13752 263 254 -15
18:00:09.887127 533.91 1328 4004 13828 339 291 -47
18:00:09.908938 533.92 1232 3952 13960 299 289 -70
18:00:09.909305 533.93 1236 3976 13880 323 286 -30
18:00:09.938351 533.94 1280 4096 13836 276 272 -22
18:00:09.948955 533.95 1296 3996 13944 282 286 -45
18:00:09.949106 533.96 1292 4016 13940 255 262 -15
18:00:09.949333 533.97 1288 4132 13948 261 269 -38
18:00:09.954179 533.98 1220 4088 13900 274 217 1
18:00:09.981213 533.99 1336 4100 13868 295 261 -38
18:00:10.005108 534.0 1248 4180 13856 247 252 -26
18:00:10.015458 534.01 1168 4036 13964 225 278 3
18:00:10.015581 534.02 1264 4020 13908 259 241 -3
18:00:10.015752 534.03 1268 4096 13956 262 293 -42
18:00:10.017807 534.04 1160 4032 13772 222 255 -10
18:00:10.029759 534.05 1280 4068 13768 187 257 12
18:00:10.051737 534.06 1264 4024 13948 165 247 -6
18:00:10.074685 534.07 1276 4152 13936 162 263 -27
18:00:10.077175 534.08 1268 4156 13928 161 283 -45
18:00:10.077293 534.09 1280 4116 13908 173 292 -18
18:00:10.079112 534.1 1292 4084 13736 115 308 -40
18:00:10.102544 534.11 1292 4152 13908 126 290 -37
18:00:10.114368 534.12 1304 4208 13744 61 250 -33
18:00:10.114502 534.13 1240 4088 14016 1 283 -30
18:00:10.154498 534.14 1248 4244 13808 -17 247 -25
18:00:10.156267 534.15 1196 4268 13832 -95 245 -34
18:00:10.183490 534.16 1204 4120 13868 -152 219 -10
18:00:10.183641 534.17 1292 4100 13852 -167 239 11
18:00:10.183752 534.18 1208 4208 13816 -201 237 -12
18:00:10.189387 534.19 1160 4196 13872 -254 202 4
18:00:10.216873 534.2 1276 4180 13956 -288 204 -1
18:00:10.217022 534.21 1256 4244 13920 -321 244 20
18:00:10.217132 534.22 1300 4128 13720 -358 215 6
18:00:10.235087 534.23 1368 4096 13824 -358 193 10
18:00:10.244025 534.24 1172 4212 13924 -374 168 -3
18:00:10.248317 534.25 1284 4120 13868 -434 184 11
18:00:10.249417 534.26 1268 4152 13988 -463 189 31
18:00:10.271258 534.27 1300 4200 13948 -489 184 9
18:00:10.279941 534.28 1292 4096 13860 -535 179 25
18:00:10.283640 534.29 1356 4132 13944 -586 174 36
18:00:10.312438 534.3 1272 4140 13916 -661 140 38
18:00:10.313576 534.31 1200 4120 14040 -664 170 46
18:00:10.314585 534.32 1236 4152 13904 -726 188 43
18:00:10.335998 534.33 1168 4084 14060 -808 146 40
18:00:10.344244 534.34 1236 3956 13896 -966 120 65
18:00:10.372266 534.35 1268 4048 13812 -1139 23 99
18:00:10.378374 534.36 1332 3944 13912 -1183 57 100
18:00:10.378746 534.37 1312 4008 14016 -959 164 60
18:00:10.383519 534.38 1192 3956 14144 -902 199 60
18:00:10.385763 534.39 1268 3916 14016 -1036 155 55
18:00:10.406275 534.4 1292 3876 14040 -1204 167 71
18:00:10.411520 534.41 1248 3920 14012 -1448 -24 161
18:00:10.419160 534.42 1208 3828 14128 -1422 -202 179
18:00:10.438461 534.43 1240 3832 14072 -1484 -130 236
18:00:10.454415 534.44 1272 3932 13564 -2309 -28 307
18:00:10.455635 534.45 1444 3648 13956 -2365 -301 265
18:00:10.456885 534.46 1648 3692 14528 -1124 117 137
18:00:10.479341 534.47 1220 3912 13932 -1220 -219 173
18:00:10.479595 534.48 1284 3656 13588 -2108 -416 272
18:00:10.486327 534.49 1364 3528 13756 -1866 -93 228
18:00:10.503649 534.5 1192 3456 13408 -2154 -379 308
18:00:10.514855 534.51 1252 3260 13644 -1980 -343 274
18:00:10.534082 534.52 1516 3276 13956 -1294 -220 210
18:00:10.547010 534.53 1516 3456 14284 -834 -255 136
18:00:10.547225 534.54 1368 3528 14328 -1128 -275 188
18:00:10.547470 534.55 1288 3524 14348 -1427 -222 213
18:00:10.571956 534.56 1360 3556 14268 -1482 -147 203
18:00:10.578553 534.57 1320 3548 13836 -1509 -105 211
18:00:10.583781 534.58 1460 3392 14072 -1535 16 182
18:00:10.592333 534.59 1376 3320 13804 -1580 28 163
18:00:10.616328 534.6 1484 3176 13932 -1719 -7 167
18:00:10.616475 534.61 1428 3168 13788 -1615 -107 178
18:00:10.621665 534.62 1560 3120 13944 -1290 -124 144
18:00:10.646228 534.63 1500 3108 14072 -1061 -62 129
18:00:10.651456 534.64 1436 3084 14220 -1026 10 96
18:00:10.651547 534.65 1452 3076 14352 -1154 20 104
18:00:10.667363 534.66 1436 3112 14304 -1234 15 100
18:00:10.683500 534.67 1348 3072 14156 -1336 55 135
18:00:10.685491 534.68 1432 3000 14084 -1365 13 122
18:00:10.689146 534.69 1624 3016 14208 -1299 -49 118
18:00:10.703822 534.7 1484 2944 14100 -1371 -52 118
18:00:10.720922 534.71 1492 2936 13944 -1397 13 96
18:00:10.723092 534.72 1432 2880 14176 -1377 -33 86
18:00:10.754562 534.73 1584 2964 14120 -1278 22 84
18:00:10.756085 534.74 1536 2896 14260 -1302 65 52
18:00:10.757016 534.75 1516 2932 14056 -1216 105 20
18:00:10.774189 534.76 1428 2908 14140 -1178 119 43
18:00:10.788645 534.77 1540 2808 14072 -1222 110 42
18:00:10.790067 534.78 1348 2828 13980 -1334 -8 23
18:00:10.801302 534.79 1460 2632 14320 -1013 244 44
18:00:10.834603 534.8 1492 2788 13908 -1196 27 76
18:00:10.851808 534.81 1556 2756 13964 -1422 35 58
18:00:10.852180 534.82 1576 2584 13988 -1199 1 24
18:00:10.868355 534.83 1628 2764 14260 -711 -30 9
18:00:10.880433 534.84 1564 2716 14052 -725 -76 25
18:00:10.892477 534.85 1608 2712 14148 -938 -31 44
18:00:10.893861 534.86 1568 2632 14164 -1064 -41 70
18:00:10.915818 534.87 1560 2716 14156 -1009 -1 -4
18:00:10.915938 534.88 1716 2592 14280 -988 -10 19
18:00:10.916032 534.89 1576 2576 14184 -1069 47 1
18:00:10.916099 534.9 1584 2700 14164 -1107 47 14
18:00:10.921355 534.91 1684 2600 14272 -1113 113 19
18:00:10.940383 534.92 1484 2444 14212 -1160 67 11
18:00:10.949101 534.93 1532 2400 14196 -1183 100 23
18:00:10.949299 534.94 1496 2404 14144 -1226 52 24
18:00:10.959476 534.95 1564 2368 14220 -1266 -11 23
18:00:10.985723 534.96 1668 2328 14260 -1142 1 3
18:00:10.985828 534.97 1656 2324 14020 -1106 -22 8
18:00:11.006208 534.98 1628 2432 14032 -1078 5 7
18:00:11.021900 534.99 1584 2268 14184 -1085 35 3
18:00:11.022211 535.0 1632 2232 14148 -1002 -17 29
18:00:11.022465 535.01 1644 2256 14132 -940 10 -6
18:00:11.043615 535.02 1688 2300 14036 -1026 45 5
18:00:11.051248 535.03 1584 2204 14128 -1036 58 38
18:00:11.056072 535.04 1680 2260 14244 -1096 58 62
18:00:11.079479 535.05 1596 2132 14160 -1055 51 39
18:00:11.109623 535.06 1680 2212 14168 -983 49 26
18:00:11.118981 535.07 1688 2216 14176 -933 24 38
18:00:11.119150 535.08 1696 2096 14108 -905 34 35
18:00:11.119279 535.09 1668 2244 14196 -838 88 39
18:00:11.119406 535.1 1656 2184 14360 -812 64 16
18:00:11.124222 535.11 1644 2116 14260 -791 81 32
18:00:11.139173 535.12 1588 2156 14264 -752 122 -11
18:00:11.169850 535.13 1636 2156 14152 -715 100 -16
18:00:11.185251 535.14 1708 2128 14364 -744 57 7
18:00:11.185474 535.15 1748 2104 14196 -657 103 11
18:00:11.185663 535.16 1644 2068 14316 -624 121 -2
18:00:11.185839 535.17 1632 2072 14204 -628 115 18
18:00:11.206571 535.18 1716 2020 14276 -629 77 26
18:00:11.227280 535.19 1620 2000 14184 -635 94 48
18:00:11.228438 535.2 1656 2048 14048 -548 102 22
18:00:11.229692 535.21 1724 2096 14156 -547 73 15
18:00:11.245592 535.22 1656 1948 14300 -490 83 -8
18:00:11.255444 535.23 1756 1940 14312 -384 84 -14
18:00:11.259079 535.24 1612 2032 14036 -347 158 -1
18:00:11.276138 535.25 1692 2040 14140 -305 133 -1
18:00:11.284607 535.26 1640 1852 14260 -213 156 15
18:00:11.284838 535.27 1776 1952 14168 -134 136 -2
18:00:11.304008 535.28 1776 1920 14292 -81 233 -10
18:00:11.317649 535.29 1644 1944 14088 67 186 12
18:00:11.318797 535.3 1684 2060 14052 44 207 31
18:00:11.337661 535.31 1692 2028 14080 193 215 10
18:00:11.351350 535.32 1828 2064 14164 261 288 20
18:00:11.358684 535.33 1680 2048 14300 284 288 -21
18:00:11.360069 535.34 1712 2152 14140 257 296 -25
18:00:11.381134 535.35 1764 2040 14168 290 328 -15
18:00:11.383874 535.36 1704 2048 14236 420 368 -25
18:00:11.393797 535.37 1644 2144 14204 443 406 -43
18:00:11.408968 535.38 1616 2120 14276 380 386 -31
18:00:11.418553 535.39 1648 2144 14208 358 292 -19
18:00:11.420744 535.4 1716 2100 14116 287 218 -27
18:00:11.441112 535.41 1680 2008 14124 177 172 15
18:00:11.451887 535.42 1696 2140 14184 354 307 -7
18:00:11.472088 535.43 1736 2080 14300 615 367 -42
18:00:11.485733 535.44 1608 2244 14280 604 317 -53
18:00:11.486041 535.45 1608 2236 13980 508 283 -33
18:00:11.551042 535.46 1680 2196 14104 431 259 -6
18:00:11.555137 535.47 1736 2036 14036 503 205 -25
18:00:11.557507 535.48 1688 2196 14304 825 265 -40
18:00:11.558610 535.49 1636 2148 14388 767 509 -8
18:00:11.559903 535.5 1548 2376 13644 -297 327 83
18:00:11.561461 535.51 1768 2024 14104 -61 274 22
18:00:11.563068 535.52 1488 2348 14424 1633 317 -115
18:00:11.565424 535.53 1568 2360 14168 1075 12 -60
18:00:11.589702 535.54 1756 2172 14012 303 -12 26
18:00:11.589828 535.55 1708 2244 14116 1034 517 -67
18:00:11.607928 535.56 1500 2248 13660 175 -77 104
18:00:11.620487 535.57 1812 2164 13980 553 162 52
18:00:11.620854 535.58 1768 2384 14380 1296 437 -25
18:00:11.639783 535.59 1612 2484 14656 1440 392 -74
18:00:11.652936 535.6 1640 2552 14332 1166 384 -26
18:00:11.653189 535.61 1616 2640 14348 729 358 18
18:00:11.658608 535.62 1616 2660 14292 580 359 31
18:00:11.660328 535.63 1620 2456 14256 653 402 -13
18:00:11.673956 535.64 1548 2472 14136 669 465 -15
18:00:11.684770 535.65 1540 2512 14072 715 491 -36
18:00:11.693904 535.66 1576 2524 13824 727 418 -55
18:00:11.710617 535.67 1688 2452 13992 860 443 -58
18:00:11.764731 535.68 1628 2476 13980 1149 383 -61
18:00:11.787542 535.69 1584 2516 14116 1343 334 -90
18:00:11.787936 535.7 1676 2552 14264 1466 375 -108
18:00:11.788319 535.71 1628 2632 14140 1433 446 -119
18:00:11.788711 535.72 1672 2756 14348 1251 414 -132
18:00:11.789075 535.73 1588 2756 14240 1123 468 -111
18:00:11.789430 535.74 1600 2844 14136 976 399 -81
18:00:11.791128 535.75 1552 2816 13984 891 365 -71
18:00:11.815020 535.76 1564 2776 14000 823 344 -58
18:00:11.842737 535.77 1552 2964 14076 813 356 -38
18:00:11.851359 535.78 1556 2740 13996 837 356 -51
18:00:11.851479 535.79 1532 2884 13956 914 391 -65
18:00:11.853957 535.8 1532 2972 14100 968 422 -71
18:00:11.856483 535.81 1592 2972 14144 1025 445 -56
18:00:11.881214 535.82 1468 3008 14248 1168 476 -107
18:00:11.889826 535.83 1472 3056 14200 1161 339 -55
18:00:11.890070 535.84 1536 3012 14448 1299 735 -136
18:00:11.890193 535.85 1468 3188 13872 924 480 -38
18:00:11.913885 535.86 1504 3156 14004 666 532 -70
18:00:11.922099 535.87 1516 3132 13844 871 507 -112
18:00:11.985599 535.88 1452 3072 14140 968 333 -127
18:00:11.988731 535.89 1508 3184 14136 1157 414 -130
18:00:11.988870 535.9 1516 3164 14132 1197 340 -121
18:00:11.988988 535.91 1572 3252 14160 967 350 -75
18:00:11.992114 535.92 1440 3324 14108 839 328 -44
18:00:11.996015 535.93 1508 3300 13964 740 280 -32
18:00:11.996844 535.94 1552 3296 14100 765 323 -68
18:00:12.012295 535.95 1480 3356 14196 884 291 -105
18:00:12.020712 535.96 1548 3276 14044 915 296 -105
18:00:12.033098 535.97 1544 3316 14172 922 391 -114
18:00:12.055303 535.98 1428 3424 14116 844 319 -93
18:00:12.055441 535.99 1420 3284 13936 907 222 -101
18:00:12.211816 536.0 1436 3316 14176 1036 171 -105
18:00:12.219735 536.01 1540 3392 14024 930 239 -45
18:00:12.219909 536.02 1572 3460 14088 811 265 -51
18:00:12.220028 536.03 1472 3544 13960 1040 469 -143
18:00:12.220165 536.04 1484 3368 14228 952 284 -87
18:00:12.226870 536.05 1396 3596 13776 743 450 -126
18:00:12.228098 536.06 1356 3540 13956 811 394 -107
18:00:12.229680 536.07 1540 3564 13764 815 326 -77
18:00:12.231937 536.08 1424 3556 13924 682 254 -60
18:00:12.233222 536.09 1388 3496 14048 665 347 -99
18:00:12.256871 536.1 1456 3616 14136 662 383 -80
18:00:12.257042 536.11 1496 3784 14076 636 334 -63
18:00:12.257286 536.12 1404 3828 13904 508 304 -63
18:00:12.257510 536.13 1440 3744 13968 490 268 -45
18:00:12.257730 536.14 1576 3836 13928 461 285 -44
18:00:12.341155 536.15 1424 3720 13944 470 288 -83
18:00:12.356891 536.16 1452 3780 13920 535 299 -74
18:00:12.357091 536.17 1412 3764 13980 562 300 -73
18:00:12.357244 536.18 1460 3820 13880 538 315 -84
18:00:12.357391 536.19 1460 3860 13920 485 317 -38
18:00:12.357538 536.2 1368 3792 13960 498 251 -75
18:00:12.357684 536.21 1412 3884 13784 511 308 -43
18:00:12.357830 536.22 1428 3896 13928 508 310 -68
18:00:12.357974 536.23 1384 3936 13888 498 260 -64
18:00:12.359627 536.24 1480 3928 13960 484 261 -64
18:00:12.421367 536.25 1420 3956 13984 445 329 -42
18:00:12.426701 536.26 1432 3988 13968 488 311 -65
18:00:12.426860 536.27 1440 3972 13892 446 268 -56
18:00:12.426965 536.28 1372 3984 13912 346 285 -39
18:00:12.427824 536.29 1312 4020 13916 356 316 -75
18:00:12.432059 536.3 1444 3956 13884 402 310 -74
18:00:12.434096 536.31 1468 3972 13992 341 343 -44
18:00:12.457430 536.32 1304 4072 13800 333 329 -67
18:00:12.457791 536.33 1388 3956 13932 367 294 -19
18:00:12.478240 536.34 1400 4020 13880 317 290 -46
18:00:12.487812 536.35 1396 3972 13848 305 291 -17
18:00:12.543123 536.36 1516 4064 13932 338 288 -50
18:00:12.559791 536.37 1388 4128 13984 346 305 -78
18:00:12.559928 536.38 1356 4080 13908 344 318 -56
18:00:12.560026 536.39 1452 4100 13872 353 350 -77
18:00:12.560120 536.4 1332 4100 13904 332 328 -42
18:00:12.560213 536.41 1352 4156 13800 223 347 -49
18:00:12.560307 536.42 1332 4004 13872 93 264 -38
18:00:12.583339 536.43 1260 4092 13732 70 186 -6
18:00:12.591825 536.44 1360 4080 13768 64 265 -25
18:00:12.591966 536.45 1320 4088 13896 305 387 -59
18:00:12.592074 536.46 1216 4132 13848 419 447 -106
18:00:12.592178 536.47 1356 4260 13908 239 384 -86
18:00:12.601416 536.48 1304 4232 13904 85 326 -72
18:00:12.623577 536.49 1248 4184 13720 39 226 -46
18:00:12.625756 536.5 1264 4228 13908 119 148 -14
18:00:12.626881 536.51 1256 4200 13876 -127 270 47
18:00:12.648910 536.52 1248 4108 13228 -902 97 117
18:00:12.658778 536.53 1532 4020 14176 -6 460 -22
18:00:12.661279 536.54 1464 4320 14364 593 436 -110
18:00:12.686724 536.55 1280 4224 13996 -190 9 -11
18:00:12.691275 536.56 1292 4128 13800 -245 176 21
18:00:12.718137 536.57 1192 4184 13544 -448 91 80
18:00:12.727273 536.58 1312 3980 13480 -590 -20 117
18:00:12.727422 536.59 1360 3964 13744 -138 166 96
18:00:12.749751 536.6 1324 4112 13844 73 106 19
18:00:12.758506 536.61 1300 4136 14016 107 -103 60
18:00:12.758913 536.62 1320 4104 14060 -117 -100 69
18:00:12.761654 536.63 1268 4112 14012 -300 -32 79
18:00:12.764091 536.64 1344 4172 13832 -130 52 43
18:00:12.783902 536.65 1240 4180 13860 -102 165 19
18:00:12.794863 536.66 1316 4208 13828 43 287 -11
18:00:12.819277 536.67 1412 4244 13844 -20 287 6
18:00:12.828910 536.68 1332 4120 13928 -90 217 -11
18:00:12.829092 536.69 1364 4164 13788 25 175 9
18:00:12.830317 536.7 1372 4176 13764 154 163 18
18:00:12.834234 536.71 1320 4216 13844 107 193 18
18:00:12.852589 536.72 1380 4152 13972 48 179 21
18:00:12.867973 536.73 1472 4260 13956 -76 199 -28
18:00:12.868191 536.74 1308 4136 13880 -236 228 -1
18:00:12.885768 536.75 1332 4204 13824 -325 261 -18
18:00:12.893932 536.76 1364 4224 13904 -358 238 12
18:00:12.905034 536.77 1364 4132 14044 -446 211 32
18:00:12.936428 536.78 1308 4112 13904 -432 237 31
18:00:12.944473 536.79 1352 4180 13936 -477 226 15
18:00:12.944610 536.8 1444 4188 13844 -553 178 60
18:00:12.967112 536.81 1404 4160 13644 -524 161 52
18:00:12.974698 536.82 1440 4096 13936 -462 152 52
18:00:12.974796 536.83 1388 4192 13780 -457 197 62
18:00:12.977979 536.84 1388 4252 13932 -419 273 13
18:00:13.004565 536.85 1400 4156 13828 -449 249 13
18:00:13.012193 536.86 1396 4192 13944 -561 182 -10
18:00:13.012319 536.87 1368 4080 14136 -311 537 -31
18:00:13.031984 536.88 1236 4152 13692 -894 215 52
18:00:13.042311 536.89 1420 4040 13732 -1231 209 105
18:00:13.046006 536.9 1340 3940 14000 -725 267 46
18:00:13.047575 536.91 1256 4000 13908 -586 127 39
18:00:13.068415 536.92 1456 4072 13912 -848 49 97
18:00:13.100050 536.93 1404 4080 13880 -977 51 95
18:00:13.108193 536.94 1356 4028 14080 -939 47 94
18:00:13.108385 536.95 1420 4024 13960 -926 33 81
18:00:13.108556 536.96 1464 4024 13940 -981 15 93
18:00:13.108806 536.97 1384 4000 13860 -960 75 94
18:00:13.118983 536.98 1428 3988 13976 -996 82 80
18:00:13.197971 536.99 1460 3944 14132 -965 145 87
18:00:13.212031 537.0 1296 3936 13992 -1051 112 94
18:00:13.212399 537.01 1376 3928 13976 -1146 102 93
18:00:13.235254 537.02 1448 3844 13968 -1108 92 127
18:00:13.247719 537.03 1380 3792 14088 -1111 73 97
18:00:13.247817 537.04 1444 3776 13936 -1169 75 105
18:00:13.247895 537.05 1344 3660 13820 -1186 104 115
18:00:13.247973 537.06 1408 3728 13924 -1303 103 144
18:00:13.248046 537.07 1372 3712 13948 -1351 122 133
18:00:13.248117 537.08 1436 3676 13944 -1295 80 155
18:00:13.248189 537.09 1492 3712 13988 -1303 25 134
18:00:13.248568 537.1 1452 3620 14008 -1452 47 158
18:00:13.273007 537.11 1376 3604 14012 -1415 89 144
18:00:13.285609 537.12 1492 3604 14064 -1400 118 128
18:00:13.285737 537.13 1476 3560 13992 -1409 72 118
18:00:13.285839 537.14 1528 3500 14100 -1387 82 153
18:00:13.301364 537.15 1372 3496 14028 -1321 109 143
18:00:13.308507 537.16 1412 3492 14068 -1217 64 134
18:00:13.322811 537.17 1400 3472 14112 -1320 106 147
18:00:13.330940 537.18 1492 3464 13976 -1321 96 129
18:00:13.333057 537.19 1528 3412 14016 -1319 93 106
18:00:13.402534 537.2 1468 3408 13980 -1346 62 158
18:00:13.403639 537.21 1508 3368 13980 -1306 57 103
18:00:13.405025 537.22 1552 3388 14124 -1293 54 132
18:00:13.429944 537.23 1472 3256 13948 -1283 114 102
18:00:13.431814 537.24 1484 3284 14084 -1262 66 87
18:00:13.432928 537.25 1456 3288 13996 -1314 97 77
18:00:13.434172 537.26 1572 3172 14148 -1179 41 110
18:00:13.435574 537.27 1520 3272 14152 -1248 74 108
18:00:13.455352 537.28 1448 3132 14044 -1321 72 76
18:00:13.459557 537.29 1420 3132 14016 -1303 35 90
18:00:13.459735 537.3 1472 2976 14048 -1322 3 101
18:00:13.485016 537.31 1492 3064 14040 -1276 15 82
18:00:13.493557 537.32 1508 3044 14036 -1152 105 60
18:00:13.493769 537.33 1468 2980 14112 -1242 48 66
18:00:13.522384 537.34 1596 2976 14176 -1222 60 66
18:00:13.532630 537.35 1488 2908 14080 -1236 70 68
18:00:13.532736 537.36 1496 2896 14172 -1243 49 73
18:00:13.533206 537.37 1532 2920 14032 -1218 42 85
18:00:13.534315 537.38 1524 2880 14080 -1181 19 48
18:00:13.538943 537.39 1640 2796 14064 -1107 38 84
18:00:13.567995 537.4 1496 2780 14092 -1124 48 60
18:00:13.568642 537.41 1552 2928 14180 -1121 88 67
18:00:13.581171 537.42 1440 2912 14108 -1119 126 46
18:00:13.601008 537.43 1556 2900 14196 -1082 86 60
18:00:13.602624 537.44 1548 2676 14260 -1098 82 55
18:00:13.615949 537.45 1556 2748 14168 -1131 135 75
18:00:13.626984 537.46 1556 2744 14148 -1107 139 42
18:00:13.638765 537.47 1544 2704 14028 -1131 153 33
18:00:13.640056 537.48 1648 2584 14232 -1130 123 18
18:00:13.661204 537.49 1552 2708 14056 -1277 102 45
18:00:13.681049 537.5 1492 2664 14036 -1368 25 39
18:00:13.698798 537.51 1476 2524 14152 -1191 57 29
18:00:13.699077 537.52 1628 2468 14304 -959 177 51
18:00:13.699163 537.53 1572 2588 14312 -831 224 -2
18:00:13.700260 537.54 1536 2604 14212 -948 218 -3
18:00:13.703900 537.55 1560 2508 14072 -1186 95 16
18:00:13.719018 537.56 1524 2436 14012 -1101 5 59
18:00:13.734078 537.57 1532 2452 14272 -839 100 7
18:00:13.763329 537.58 1600 2444 14328 -870 236 -7
18:00:13.767685 537.59 1552 2556 13924 -1534 275 48
18:00:13.767802 537.6 1648 2280 13732 -2017 -130 53
18:00:13.771358 537.61 1872 2188 14672 -571 361 -39
18:00:13.785267 537.62 1508 2456 14184 -103 -20 -47
18:00:13.795325 537.63 1468 2380 13784 -1264 -390 121
18:00:13.822667 537.64 1600 2220 14148 -520 327 -24
18:00:13.831942 537.65 1436 2352 13900 -982 33 87
18:00:13.832310 537.66 1636 2252 13872 -1357 -253 148
18:00:13.832590 537.67 1800 2100 14236 -436 247 18
18:00:13.839075 537.68 1632 2292 14644 -104 348 -48
18:00:13.856126 537.69 1540 2424 14672 -277 254 -4
18:00:13.883990 537.7 1552 2364 14324 -560 137 35
18:00:13.904033 537.71 1520 2452 14268 -784 136 45
18:00:13.904213 537.72 1616 2376 14248 -932 69 79
18:00:13.904640 537.73 1588 2236 14272 -906 123 59
18:00:13.921204 537.74 1616 2248 14032 -811 262 34
18:00:13.929856 537.75 1520 2152 14016 -727 215 29
18:00:13.938737 537.76 1588 2188 13816 -531 139 53
18:00:13.940099 537.77 1668 2084 13888 -161 157 15
18:00:13.956900 537.78 1620 2184 14128 258 187 12
18:00:13.964718 537.79 1712 2040 14272 459 209 9
18:00:13.989536 537.8 1608 2220 14248 575 305 -26
18:00:13.999033 537.81 1616 2176 14232 630 336 -8
18:00:13.999149 537.82 1772 2180 14152 613 380 -40
18:00:14.023164 537.83 1572 2172 14276 568 411 -37
18:00:14.031381 537.84 1744 2316 13996 518 359 -51
18:00:14.039715 537.85 1648 2228 14084 593 337 -24
18:00:14.040722 537.86 1596 2284 14180 656 360 -41
18:00:14.041771 537.87 1644 2340 14112 654 309 -25
18:00:14.055284 537.88 1596 2292 14136 745 284 -10
18:00:14.063493 537.89 1704 2404 14116 940 316 -30
18:00:14.073682 537.9 1548 2312 14284 1114 390 -17
18:00:14.075058 537.91 1560 2368 14156 1197 392 -45
18:00:14.087021 537.92 1540 2528 14268 1367 419 -52
18:00:14.097224 537.93 1564 2588 14272 1280 373 -59
18:00:14.109163 537.94 1680 2568 14424 1409 641 -89
18:00:14.131524 537.95 1488 2544 14124 1058 581 -61
18:00:14.133410 537.96 1524 2540 14124 727 432 -46
18:00:14.135004 537.97 1608 2484 14076 1023 480 -91
18:00:14.156630 537.98 1512 2600 14028 1091 363 -75
18:00:14.164612 537.99 1668 2548 14020 1115 333 -88
18:00:14.177755 538.0 1604 2576 14232 1298 394 -115
18:00:14.198582 538.01 1468 2704 14160 1200 319 -81
18:00:14.198919 538.02 1624 2672 14156 1170 331 -71
18:00:14.209160 538.03 1568 2688 14148 1103 267 -60
18:00:14.233229 538.04 1528 2824 14056 1118 314 -72
18:00:14.259420 538.05 1596 2852 14248 1163 375 -74
18:00:14.265590 538.06 1472 2856 14104 1212 405 -113
18:00:14.265813 538.07 1560 2884 14264 1141 411 -113
18:00:14.265967 538.08 1532 2852 14280 1115 431 -99
18:00:14.269217 538.09 1396 2916 14220 957 441 -81
18:00:14.272213 538.1 1512 2980 14040 882 365 -75
18:00:14.274949 538.11 1520 2876 14176 925 401 -86
18:00:14.291910 538.12 1500 2960 13908 956 369 -77
18:00:14.324859 538.13 1472 2908 13932 776 308 -41
18:00:14.332227 538.14 1532 2964 13968 801 409 -67
18:00:14.332483 538.15 1400 2928 14052 974 378 -77
18:00:14.332611 538.16 1432 3000 14060 1133 318 -53
18:00:14.333829 538.17 1492 3076 14052 1123 368 -74
18:00:14.353135 538.18 1532 3092 14112 978 342 -64
18:00:14.373611 538.19 1488 3224 13880 862 355 -62
18:00:14.375339 538.2 1624 3152 14104 895 423 -61
18:00:14.387061 538.21 1464 3284 14152 882 410 -38
18:00:14.425139 538.22 1496 3272 13984 827 397 -77
18:00:14.432887 538.23 1420 3240 14176 749 403 -82
18:00:14.433077 538.24 1448 3292 14052 757 357 -86
18:00:14.458111 538.25 1420 3416 14196 810 378 -88
18:00:14.466852 538.26 1416 3308 14212 844 341 -86
18:00:14.467021 538.27 1456 3340 14232 799 339 -82
18:00:14.467152 538.28 1420 3408 14104 812 293 -65
18:00:14.469994 538.29 1436 3280 14016 715 317 -75
18:00:14.497565 538.3 1396 3280 13928 761 300 -76
18:00:14.502967 538.31 1452 3484 13980 852 379 -87
18:00:14.503093 538.32 1480 3340 13984 784 314 -114
18:00:14.506140 538.33 1388 3416 14076 776 347 -98
18:00:14.531605 538.34 1480 3484 14036 854 336 -109
18:00:14.536201 538.35 1372 3548 14068 837 379 -102
18:00:14.554506 538.36 1320 3524 13884 739 359 -95
18:00:14.568076 538.37 1400 3480 14024 738 347 -91
18:00:14.568181 538.38 1480 3512 13956 730 309 -80
18:00:14.568249 538.39 1280 3632 13928 725 298 -80
18:00:14.594742 538.4 1324 3520 13988 732 337 -54
18:00:14.605418 538.41 1432 3680 14104 680 349 -88
18:00:14.605550 538.42 1424 3604 14044 672 314 -82
18:00:14.605638 538.43 1340 3524 14064 629 363 -65
18:00:14.626726 538.44 1348 3704 13912 619 328 -99
18:00:14.655078 538.45 1256 3700 13924 595 347 -87
18:00:14.672476 538.46 1424 3680 14076 598 422 -131
18:00:14.696941 538.47 1312 3712 14004 639 422 -76
18:00:14.705585 538.48 1388 3656 14000 602 351 -60
18:00:14.705723 538.49 1324 3756 14096 512 356 -55
18:00:14.705821 538.5 1440 3728 13852 463 274 -60
18:00:14.705914 538.51 1380 3716 13712 428 209 -48
18:00:14.711208 538.52 1536 3864 14120 659 350 -101
18:00:14.712894 538.53 1444 3808 13852 920 614 -77
18:00:14.733261 538.54 1272 3776 13968 883 284 -73
18:00:14.733396 538.55 1372 3928 14180 857 447 -104
18:00:14.733482 538.56 1372 3944 14144 583 357 -96
18:00:14.747184 538.57 1324 3848 13892 444 352 -69
18:00:14.770165 538.58 1320 3844 14008 449 210 -74
18:00:14.770876 538.59 1216 3848 14000 333 228 3
18:00:14.772472 538.6 1172 3896 13304 -486 166 101
18:00:14.813650 538.61 1556 3676 13976 -7 214 -45
18:00:14.838765 538.62 1480 3904 14484 970 502 -163
18:00:14.838866 538.63 1512 4084 14092 672 202 -75
18:00:14.838930 538.64 1340 3936 13872 63 164 -1
18:00:14.838990 538.65 1452 3948 13816 248 413 -37
18:00:14.846009 538.66 1200 3852 13416 -371 40 81
18:00:14.847058 538.67 1396 3720 13736 -101 173 58
18:00:14.868246 538.68 1428 3888 13940 331 185 -3
18:00:14.890300 538.69 1344 3928 14168 580 -11 -28
18:00:14.909890 538.7 1340 4004 14024 577 -66 -48
18:00:14.910830 538.71 1216 4148 14012 349 -53 8
18:00:14.912037 538.72 1336 3996 14184 166 221 0
18:00:14.932560 538.73 1340 4060 13864 104 238 -12
18:00:14.936371 538.74 1320 3988 13848 217 211 -21
18:00:14.936543 538.75 1324 4192 13868 249 248 -15
18:00:14.941232 538.76 1380 4004 13692 127 258 -51
18:00:14.966172 538.77 1416 4040 13736 230 253 -34
18:00:14.970277 538.78 1448 4024 13672 439 233 -32
18:00:14.994770 538.79 1324 4048 13800 544 244 -24
18:00:15.003023 538.8 1432 4032 13944 483 207 -1
18:00:15.010230 538.81 1344 4096 13932 418 243 -34
18:00:15.029894 538.82 1308 4148 13972 254 241 -30
18:00:15.036163 538.83 1212 4040 13828 208 305 -58
18:00:15.036336 538.84 1348 4156 13876 183 310 -30
18:00:15.048460 538.85 1260 4124 13980 154 300 -28
18:00:15.068478 538.86 1220 4148 13884 119 307 -19
18:00:15.068791 538.87 1300 4076 13872 122 311 -40
18:00:15.069151 538.88 1260 3996 13864 110 278 -39
18:00:15.091775 538.89 1372 4152 13900 120 281 -9
18:00:15.101301 538.9 1316 4052 13864 169 254 -49
18:00:15.107214 538.91 1336 4280 13876 201 291 -36
18:00:15.123655 538.92 1232 4208 13768 205 331 -50
18:00:15.136679 538.93 1296 4188 13844 288 324 -43
18:00:15.146037 538.94 1236 4200 13896 271 264 -76
18:00:15.147187 538.95 1356 4080 14164 492 676 -122
18:00:15.165221 538.96 1236 4236 13628 -19 369 -20
18:00:15.176569 538.97 1252 4088 13568 -306 289 -1
18:00:15.189637 538.98 1340 4120 13792 199 469 -70
18:00:15.206273 538.99 1284 4192 13964 349 419 -102
18:00:15.206465 539.0 1284 4260 13916 130 336 -76
18:00:15.208877 539.01 1352 4264 13848 33 264 -12
18:00:15.262710 539.02 1328 4244 13852 -105 237 -20
18:00:15.274107 539.03 1256 4248 13824 -35 236 -3
18:00:15.274214 539.04 1384 4280 13800 -6 164 1
18:00:15.274282 539.05 1392 4220 13952 -61 218 -31
18:00:15.296304 539.06 1360 4316 13816 -64 216 -7
18:00:15.305373 539.07 1344 4364 13872 -62 256 -26
18:00:15.305664 539.08 1348 4228 13888 -147 286 -22
18:00:15.306086 539.09 1248 4212 13880 -220 228 25
18:00:15.332396 539.1 1328 4204 13968 -241 193 11
18:00:15.343141 539.11 1308 4164 13908 -163 221 -17
18:00:15.343241 539.12 1276 4172 13772 -107 253 1
18:00:15.344425 539.13 1296 4264 13828 -203 263 28
18:00:15.345893 539.14 1196 4176 13968 -293 269 9
18:00:15.347049 539.15 1292 4164 13956 -299 281 13
18:00:15.363862 539.16 1200 4260 13716 -363 266 12
18:00:15.373224 539.17 1264 4252 13780 -437 257 30
18:00:15.405784 539.18 1304 4172 13884 -534 199 -9
18:00:15.406917 539.19 1400 4244 13864 -559 204 38
18:00:15.407994 539.2 1420 4204 13828 -623 181 66
18:00:15.416181 539.21 1396 4164 13948 -621 197 58
18:00:15.436336 539.22 1324 4220 13976 -600 218 37
18:00:15.436686 539.23 1224 4192 13908 -575 224 57
18:00:15.437020 539.24 1248 4188 13936 -639 234 32
18:00:15.443589 539.25 1248 4064 13800 -668 261 35
18:00:15.458807 539.26 1312 4140 13892 -672 280 42
18:00:15.499836 539.27 1304 4124 13968 -891 190 73
18:00:15.509948 539.28 1280 4028 13776 -904 290 52
18:00:15.510081 539.29 1292 4024 13932 -1078 160 112
18:00:15.510167 539.3 1248 3980 14040 -1054 209 70
18:00:15.532527 539.31 1288 4024 13848 -1130 186 76
18:00:15.542935 539.32 1380 4000 13868 -1161 220 95
18:00:15.547697 539.33 1248 4036 14004 -1111 191 66
18:00:15.548677 539.34 1352 3960 13976 -1125 268 62
18:00:15.549445 539.35 1344 3992 14024 -1203 268 90
18:00:15.561307 539.36 1220 3840 13908 -1367 187 74
18:00:15.581127 539.37 1264 3944 13852 -1517 156 120
18:00:15.582629 539.38 1228 3904 13904 -1522 61 167
18:00:15.624275 539.39 1292 3768 13980 -1395 86 149
18:00:15.641638 539.4 1292 3768 13824 -1388 105 134
18:00:15.641775 539.41 1312 3784 13904 -1402 142 115
18:00:15.644345 539.42 1312 3732 13912 -1375 206 111
18:00:15.645602 539.43 1292 3720 13788 -1433 170 119
18:00:15.647017 539.44 1172 3616 13876 -1552 160 134
18:00:15.663762 539.45 1308 3608 13992 -1434 125 128
18:00:15.679879 539.46 1444 3676 14000 -1272 153 75
18:00:15.680002 539.47 1272 3668 14076 -1402 232 85
18:00:15.694877 539.48 1448 3488 13932 -1571 223 137
18:00:15.705759 539.49 1244 3480 13900 -1782 116 152
18:00:15.705893 539.5 1344 3404 13848 -1881 -8 138
18:00:15.743375 539.51 1432 3412 14052 -1648 41 119
18:00:15.744444 539.52 1324 3412 14104 -1279 148 109
18:00:15.745692 539.53 1356 3440 14344 -1105 175 84
18:00:15.762986 539.54 1288 3480 14244 -1249 176 113
18:00:15.772634 539.55 1212 3304 13980 -1410 76 116
18:00:15.773897 539.56 1268 3212 13876 -1450 -39 128
18:00:15.802242 539.57 1428 3292 14120 -1275 -66 130
18:00:15.810002 539.58 1364 3288 14188 -1485 87 164
18:00:15.810251 539.59 1340 3272 13712 -2212 82 245
18:00:15.827995 539.6 1424 3020 13840 -2309 -160 183
18:00:15.840604 539.61 1416 3064 14620 -878 212 -5
18:00:15.840746 539.62 1244 3248 14072 -1072 -175 107
18:00:15.840955 539.63 1408 3160 13888 -1970 -410 173
18:00:15.899095 539.64 1504 2928 14128 -1192 242 24
18:00:15.907769 539.65 1260 2960 13624 -1733 -257 200
18:00:15.907881 539.66 1512 2784 13688 -2001 -318 239
18:00:15.907971 539.67 1528 2808 14140 -1037 12 87
18:00:15.908056 539.68 1456 3116 14408 -724 30 56
18:00:15.908145 539.69 1464 3076 14388 -1009 91 37
18:00:15.918592 539.7 1296 2992 14364 -1343 7 48
18:00:15.942370 539.71 1392 2960 14268 -1484 83 86
18:00:15.942531 539.72 1300 3004 14236 -1709 93 109
18:00:15.961504 539.73 1488 2864 14112 -1891 44 147
18:00:15.984237 539.74 1432 2772 14012 -1818 25 96
18:00:15.985714 539.75 1352 2624 13980 -1771 -60 96
18:00:15.986630 539.76 1408 2612 13976 -1555 -56 109
18:00:16.009568 539.77 1468 2588 13952 -1344 -58 62
18:00:16.009848 539.78 1548 2516 14040 -921 -5 50
18:00:16.010037 539.79 1552 2540 14228 -728 106 13
18:00:16.013780 539.8 1472 2604 14276 -729 132 30
18:00:16.031090 539.81 1516 2564 14240 -871 120 10
18:00:16.040202 539.82 1436 2556 14212 -913 115 9
18:00:16.053734 539.83 1644 2556 14300 -1029 102 48
18:00:16.075020 539.84 1604 2480 14112 -1113 111 48
18:00:16.075914 539.85 1472 2480 14268 -1109 94 17
18:00:16.077017 539.86 1552 2452 14228 -1151 39 33
18:00:16.099722 539.87 1568 2544 14064 -1184 38 5
18:00:16.109153 539.88 1520 2400 14116 -1087 83 35
18:00:16.113558 539.89 1656 2452 14024 -1071 59 11
18:00:16.114344 539.9 1528 2512 14164 -1079 111 5
18:00:16.136366 539.91 1496 2384 14168 -917 181 6
18:00:16.147415 539.92 1424 2432 14316 -709 166 -17
18:00:16.159135 539.93 1416 2440 14140 -853 125 -10
18:00:16.182136 539.94 1600 2380 14368 -686 368 -17
18:00:16.182464 539.95 1408 2332 14052 -765 198 18
18:00:16.183106 539.96 1436 2360 14132 -1205 137 11
18:00:16.197170 539.97 1472 2260 14076 -991 78 26
18:00:16.211065 539.98 1560 2164 14276 -683 47 1
18:00:16.212884 539.99 1508 2324 14240 -601 64 -11
18:00:16.216789 540.0 1456 2316 14320 -707 87 -10
18:00:16.236522 540.01 1568 2248 14408 -820 47 14
18:00:16.261498 540.02 1552 2232 14208 -846 45 -3
18:00:16.279450 540.03 1580 2260 14296 -889 55 -10
18:00:16.279556 540.04 1556 2208 14288 -863 111 -39
18:00:16.298161 540.05 1524 2188 14204 -861 112 -27
18:00:16.314374 540.06 1564 2220 14144 -815 154 -69
18:00:16.314574 540.07 1468 2100 14204 -704 126 -32
18:00:16.319771 540.08 1468 2056 14180 -756 176 -30
18:00:16.341685 540.09 1432 2024 14224 -720 184 8
18:00:16.341862 540.1 1572 2028 14244 -659 140 25
18:00:16.342081 540.11 1548 1992 14044 -538 125 21
18:00:16.342276 540.12 1592 2096 14172 -384 175 6
18:00:16.351768 540.13 1752 2060 14100 -355 112 15
18:00:16.377122 540.14 1492 2052 14168 -278 134 -7
18:00:16.379393 540.15 1564 2036 14052 -85 156 13
18:00:16.403238 540.16 1452 2016 14124 75 186 1
18:00:16.416872 540.17 1472 2024 14160 168 243 -2
18:00:16.418311 540.18 1512 2040 14192 192 250 26
18:00:16.419406 540.19 1588 2120 14184 283 291 15
18:00:16.435946 540.2 1444 2080 14232 372 352 -7
18:00:16.443117 540.21 1592 2248 14192 415 411 6
18:00:16.448735 540.22 1456 2180 14104 460 350 -22
18:00:16.477063 540.23 1560 2164 14228 496 423 -31
18:00:16.478305 540.24 1432 2232 14184 479 392 -26
18:00:16.479409 540.25 1540 2328 14124 424 286 -2
18:00:16.497838 540.26 1540 2156 14180 491 310 -23
18:00:16.510468 540.27 1568 2272 14072 592 328 3
18:00:16.537335 540.28 1492 2348 14160 563 337 -4
18:00:16.543260 540.29 1544 2196 14096 580 304 -13
18:00:16.543387 540.3 1552 2208 14112 652 293 -6
18:00:16.548474 540.31 1388 2360 14120 703 334 -12
18:00:16.550483 540.32 1524 2276 14132 822 365 -25
18:00:16.554143 540.33 1432 2308 14280 883 361 -23
18:00:16.578196 540.34 1456 2260 14132 959 357 -27
18:00:16.595625 540.35 1440 2324 14252 987 399 -49
18:00:16.612787 540.36 1440 2388 14208 976 439 -74
18:00:16.613883 540.37 1540 2424 14288 929 453 -53
18:00:16.614985 540.38 1476 2432 14356 803 477 -66
18:00:16.631227 540.39 1488 2400 14148 735 420 -78
18:00:16.644408 540.4 1484 2528 14208 769 406 -68
18:00:16.653497 540.41 1440 2504 14268 807 425 -96
18:00:16.655172 540.42 1392 2528 14264 736 395 -51
18:00:16.675608 540.43 1440 2572 14040 468 250 -33
18:00:16.702825 540.44 1332 2476 14036 428 187 6
18:00:16.713368 540.45 1444 2468 14024 588 223 14
18:00:16.713507 540.46 1448 2592 14364 987 401 -39
18:00:16.713606 540.47 1520 2584 14316 1244 478 -41
18:00:16.715670 540.48 1388 2720 14260 1113 433 -35
18:00:16.740700 540.49 1420 2704 14148 1021 386 -20
18:00:16.751826 540.5 1324 2676 13888 949 333 -18
18:00:16.751944 540.51 1508 2668 14240 1206 364 -29
18:00:16.766045 540.52 1344 2792 14448 1162 500 -35
18:00:16.783382 540.53 1408 2936 13728 58 430 55
18:00:16.783480 540.54 1576 2676 13872 48 246 15
18:00:16.786507 540.55 1544 2788 14716 1447 690 -177
18:00:16.826365 540.56 1356 2928 14052 1240 292 -78
18:00:16.848964 540.57 1472 2932 14180 334 21 -24
18:00:16.849185 540.58 1412 2760 14176 1097 641 -123
18:00:16.849433 540.59 1172 2864 13728 407 90 74
18:00:16.849605 540.6 1400 2836 13476 -84 -56 113
18:00:16.849775 540.61 1528 2752 13916 746 283 3
18:00:16.873962 540.62 1504 2924 14232 1278 235 -77
18:00:16.887443 540.63 1408 3060 14468 1276 257 -88
18:00:16.887633 540.64 1444 3000 14360 959 247 -26
18:00:16.887769 540.65 1328 3104 14248 800 391 -13
18:00:16.908943 540.66 1320 3132 14268 794 410 -21
18:00:16.916139 540.67 1288 3084 14080 641 373 -13
18:00:16.930985 540.68 1408 3192 14028 650 378 -43
18:00:16.936169 540.69 1380 3068 14032 621 339 -48
18:00:16.987605 540.7 1404 3172 13996 706 315 -27
18:00:16.995360 540.71 1364 3208 13936 729 335 -6
18:00:16.995666 540.72 1376 3048 14040 939 303 -65
18:00:16.995902 540.73 1508 3188 14172 1102 307 -62
18:00:16.996128 540.74 1392 3192 14180 994 322 -65
18:00:16.996346 540.75 1392 3172 14180 973 351 -76
18:00:17.003887 540.76 1328 3308 14252 781 364 -64
18:00:17.032701 540.77 1444 3292 14108 689 357 -84
18:00:17.034154 540.78 1412 3272 14072 617 323 -44
18:00:17.035099 540.79 1344 3264 14088 561 310 -21
18:00:17.056706 540.8 1284 3324 13988 539 287 -44
18:00:17.067686 540.81 1416 3308 13968 525 289 -58
18:00:17.067920 540.82 1364 3268 13980 513 283 -31
18:00:17.092294 540.83 1348 3320 14008 592 308 -41
18:00:17.098468 540.84 1428 3392 14040 692 293 -63
18:00:17.098606 540.85 1272 3404 13992 733 294 -40
18:00:17.100925 540.86 1232 3484 14068 875 353 -76
18:00:17.126367 540.87 1392 3556 14020 944 330 -113
18:00:17.131769 540.88 1380 3612 14104 1038 469 -131
18:00:17.156482 540.89 1248 3588 14240 1061 667 -128
18:00:17.169417 540.9 1352 3500 13768 493 355 -55
18:00:17.169527 540.91 1328 3420 13728 252 317 -35
18:00:17.169600 540.92 1368 3472 14040 716 337 -106
18:00:17.169669 540.93 1296 3556 14188 1050 286 -119
18:00:17.186725 540.94 1416 3488 14024 890 241 -104
18:00:17.218970 540.95 1284 3584 14012 629 299 -26
18:00:17.230479 540.96 1216 3676 14064 678 272 -62
18:00:17.230725 540.97 1312 3612 14120 699 201 -16
18:00:17.230929 540.98 1372 3652 14008 619 241 -59
18:00:17.278847 540.99 1376 3580 14000 637 313 -78
18:00:17.299209 541.0 1268 3708 13928 701 300 -43
18:00:17.299401 541.01 1436 3784 14008 696 302 -104
18:00:17.299554 541.02 1384 3816 13904 568 365 -86
18:00:17.299702 541.03 1308 3668 13992 427 330 -51
18:00:17.299850 541.04 1376 3744 13928 485 283 -48
18:00:17.306255 541.05 1280 3720 14000 555 332 -65
18:00:17.307545 541.06 1332 3744 13928 562 328 -61
18:00:17.323862 541.07 1364 3760 13860 431 302 -29
18:00:17.353259 541.08 1236 3724 14008 463 345 -71
18:00:17.364148 541.09 1236 3724 13916 595 326 -78
18:00:17.385915 541.1 1240 3808 14044 592 336 -79
18:00:17.423460 541.11 1180 3740 13940 571 351 -66
18:00:17.431921 541.12 1172 3916 13860 547 302 -60
18:00:17.432060 541.13 1312 3984 14024 459 329 -53
18:00:17.432161 541.14 1308 3928 13932 418 326 -27
18:00:17.432256 541.15 1284 3912 13936 412 356 -44
18:00:17.432350 541.16 1216 3948 13796 468 323 -49
18:00:17.432472 541.17 1240 4028 13928 443 310 -39
18:00:17.432566 541.18 1196 3968 13892 422 340 -51
18:00:17.438968 541.19 1252 3972 13972 410 286 -40
18:00:17.464331 541.2 1264 4028 13872 451 312 -33
18:00:17.466487 541.21 1292 3932 13932 429 323 -43
18:00:17.490769 541.22 1232 4000 14004 353 330 -48
18:00:17.499517 541.23 1320 3968 14028 324 304 -50
18:00:17.499762 541.24 1188 3928 13932 360 320 -33
18:00:17.499984 541.25 1300 3940 13832 319 314 -51
18:00:17.523613 541.26 1260 4036 13820 336 308 -48
18:00:17.532353 541.27 1292 4068 13940 302 359 -63
18:00:17.595341 541.28 1192 4076 13920 303 329 -32
18:00:17.597553 541.29 1244 3996 13644 334 323 -67
18:00:17.597744 541.3 1196 4072 13964 319 314 -69
18:00:17.598730 541.31 1284 4048 13960 281 314 -77
18:00:17.601156 541.32 1228 4164 13900 239 295 -58
18:00:17.606152 541.33 1232 4104 13948 203 288 -62
18:00:17.608990 541.34 1180 4104 13932 219 299 -13
18:00:17.610218 541.35 1112 4252 14020 206 301 -20
18:00:17.622478 541.36 1284 4076 13844 213 315 -44
18:00:17.652050 541.37 1216 4160 13840 201 314 -34
18:00:17.668683 541.38 1224 4068 13844 191 327 -42
18:00:17.668982 541.39 1220 4156 13752 195 323 -30
18:00:17.696417 541.4 1132 4220 13888 166 287 -6
18:00:17.706381 541.41 1184 4116 13880 120 292 -58
18:00:17.706971 541.42 1148 4236 13872 130 319 -24
18:00:17.708202 541.43 1300 4108 13808 133 317 -40
18:00:17.709262 541.44 1248 4168 13816 140 316 -8
18:00:17.759925 541.45 1148 4160 14016 126 309 -40
18:00:17.770128 541.46 1184 4212 13820 94 291 -46
18:00:17.770273 541.47 1236 4204 13852 114 309 -21
18:00:17.770348 541.48 1232 4168 13820 105 310 -38
18:00:17.793716 541.49 1232 4260 13980 47 295 -3
18:00:17.805809 541.5 1216 4292 13708 22 273 -12
18:00:17.805916 541.51 1312 4236 13960 -17 294 -21
18:00:17.805984 541.52 1280 4188 13832 25 279 -23
18:00:17.829274 541.53 1220 4160 13856 -41 284 -31
18:00:17.838764 541.54 1204 4248 14012 -48 303 -49
18:00:17.839087 541.55 1228 4168 13784 -71 308 -23
18:00:17.839171 541.56 1140 4128 13772 -131 317 -23
18:00:17.840849 541.57 1148 4176 14068 -198 289 -7
18:00:17.861480 541.58 1096 4284 13828 -234 283 -9
18:00:17.871020 541.59 1204 4228 13788 -270 224 -25
18:00:17.876059 541.6 1276 4168 13900 -332 223 7
18:00:17.876924 541.61 1176 4212 13916 -332 250 -6
18:00:17.926898 541.62 1200 4248 13832 -395 220 -25
18:00:17.932629 541.63 1180 4144 13916 -425 229 -38
18:00:17.932945 541.64 1156 4128 13964 -498 280 27
18:00:17.933205 541.65 1184 4248 13944 -626 266 27
18:00:17.936691 541.66 1232 4252 13856 -779 222 3
18:00:17.939873 541.67 1108 4236 13820 -934 150 57
18:00:17.942573 541.68 1128 4136 13652 -1110 98 108
18:00:17.956620 541.69 1248 4092 13860 -1104 93 72
18:00:17.987294 541.7 1168 4116 14184 -857 249 40
18:00:18.003432 541.71 1212 4188 14024 -846 322 18
18:00:18.003676 541.72 1148 4088 14092 -1100 204 62
18:00:18.022091 541.73 1108 3980 13840 -1303 145 72
18:00:18.036936 541.74 1160 4024 13800 -1308 51 99
18:00:18.037166 541.75 1288 4016 14036 -1148 -22 92
18:00:18.041203 541.76 1120 3896 14184 -1226 39 149
18:00:18.042962 541.77 1056 3992 13576 -2003 101 211
18:00:18.091520 541.78 1388 3844 14016 -1973 -3 165
18:00:18.099695 541.79 1328 3916 14620 -739 323 49
18:00:18.100059 541.8 1084 4068 13860 -1331 -133 139
18:00:18.100339 541.81 1088 3768 13812 -1769 -218 200
18:00:18.127049 541.82 1336 3684 13960 -1299 106 162
18:00:18.136169 541.83 1068 3588 13480 -2024 -305 285
18:00:18.142390 541.84 1252 3452 13688 -1832 -240 250
18:00:18.143511 541.85 1392 3576 13992 -1031 -176 156
18:00:18.144553 541.86 1456 3708 14288 -859 -171 144
18:00:18.156820 541.87 1184 3848 14208 -1222 -254 178
18:00:18.170378 541.88 1340 3752 14196 -1406 -165 203
18:00:18.170723 541.89 1256 3680 14328 -1500 -59 195
18:00:18.173838 541.9 1216 3608 13988 -1615 -18 181
18:00:18.199287 541.91 1416 3580 14136 -1561 92 185
18:00:18.205905 541.92 1308 3528 13872 -1744 35 181
18:00:18.211455 541.93 1276 3400 13676 -1925 22 157
18:00:18.266426 541.94 1300 3356 13736 -1659 -41 169
18:00:18.272261 541.95 1388 3248 14128 -1225 17 118
18:00:18.272363 541.96 1276 3304 14224 -1061 106 97
18:00:18.272991 541.97 1376 3308 14260 -1107 121 94
18:00:18.274076 541.98 1264 3188 14152 -1184 114 115
18:00:18.277460 541.99 1392 3208 14208 -1334 92 133
18:00:18.279936 542.0 1280 3212 14104 -1353 107 131
18:00:18.308094 542.01 1268 3164 14104 -1387 87 118
18:00:18.333186 542.02 1280 3152 14076 -1368 4 133
18:00:18.364232 542.03 1416 3212 14056 -1370 12 120
18:00:18.369362 542.04 1356 3120 13952 -1324 9 95
18:00:18.369479 542.05 1312 3100 14024 -1224 43 101
18:00:18.369559 542.06 1272 3064 14060 -1131 68 60
18:00:18.369798 542.07 1428 3044 14020 -1101 106 70
18:00:18.382131 542.08 1328 3220 14080 -1053 163 64
18:00:18.402774 542.09 1324 3036 14096 -899 132 48
18:00:18.402919 542.1 1432 3040 14124 -826 172 39
18:00:18.403001 542.11 1352 3180 14120 -841 142 32
18:00:18.422191 542.12 1416 2956 14332 -914 221 25
18:00:18.435926 542.13 1316 3000 14168 -741 402 24
18:00:18.436048 542.14 1140 3008 13780 -1350 53 81
18:00:18.438370 542.15 1432 2796 13956 -1417 -8 50
18:00:18.440196 542.16 1448 2800 14236 -763 86 -19
18:00:18.479320 542.17 1360 2948 14204 -667 -13 -5
18:00:18.481019 542.18 1516 3008 14120 -965 -14 28
18:00:18.503274 542.19 1452 2836 14284 -1076 36 33
18:00:18.503381 542.2 1432 2908 14144 -1082 116 -4
18:00:18.503667 542.21 1364 2832 14324 -1117 41 32
18:00:18.504788 542.22 1376 2860 14128 -1170 20 9
18:00:18.511401 542.23 1488 2812 14212 -1119 54 15
18:00:18.534884 542.24 1516 2792 14260 -1088 53 17
18:00:18.559669 542.25 1436 2744 14148 -1100 38 -9
18:00:18.569212 542.26 1456 2672 14256 -1021 103 23
18:00:18.569318 542.27 1380 2688 14324 -1049 133 11
18:00:18.573297 542.28 1412 2636 14196 -1149 165 12
18:00:18.574914 542.29 1408 2568 14116 -1090 126 -13
18:00:18.596304 542.3 1456 2588 14344 -1056 108 23
18:00:18.604202 542.31 1456 2540 14204 -1078 42 1
18:00:18.637499 542.32 1472 2520 14152 -1129 30 23
18:00:18.643661 542.33 1392 2520 14248 -1144 44 7
18:00:18.643817 542.34 1420 2472 14136 -1160 23 -4
18:00:18.659985 542.35 1448 2496 14204 -1110 15 10
18:00:18.673601 542.36 1460 2500 14112 -1114 23 29
18:00:18.673747 542.37 1540 2516 14104 -1174 13 25
18:00:18.673842 542.38 1440 2488 14172 -1163 61 40
18:00:18.693548 542.39 1500 2480 14188 -1091 122 20
18:00:18.703125 542.4 1488 2556 14224 -999 104 -10
18:00:18.706202 542.41 1408 2284 14188 -1060 62 29
18:00:18.734647 542.42 1480 2312 14176 -1003 74 39
18:00:18.737284 542.43 1464 2308 14160 -877 77 7
18:00:18.737424 542.44 1524 2364 14176 -820 109 13
18:00:18.765086 542.45 1440 2336 14212 -831 99 -5
18:00:18.774443 542.46 1500 2384 14072 -848 76 3
18:00:18.775686 542.47 1508 2280 14044 -857 82 4
18:00:18.776922 542.48 1440 2304 14108 -875 78 4
18:00:18.793144 542.49 1516 2204 14128 -788 99 13
18:00:18.816955 542.5 1544 2172 14216 -741 78 -4
18:00:18.840918 542.51 1488 2200 14132 -696 88 8
18:00:18.841183 542.52 1512 2188 14216 -547 101 -6
18:00:18.861470 542.53 1532 2156 14220 -400 127 5
18:00:18.871483 542.54 1504 2100 14232 -416 133 38
18:00:18.871626 542.55 1536 2140 14116 -283 134 12
18:00:18.873284 542.56 1484 1988 14200 -117 169 9
18:00:18.874913 542.57 1488 2192 14104 -80 149 10
18:00:18.899373 542.58 1596 2060 14080 90 214 20
18:00:18.911328 542.59 1500 2084 14272 264 326 -1
18:00:18.914595 542.6 1400 2164 14184 311 343 26
18:00:18.937250 542.61 1532 2136 14112 416 336 -9
18:00:18.939802 542.62 1464 2176 14084 497 307 2
18:00:18.940017 542.63 1472 2164 14224 577 341 9
18:00:18.946103 542.64 1376 2244 14124 672 358 -15
18:00:18.972929 542.65 1360 2200 14120 680 329 -17
18:00:18.976408 542.66 1552 2228 14176 770 367 -31
18:00:18.984310 542.67 1464 2360 14136 826 375 -42
18:00:19.006178 542.68 1448 2484 14220 821 395 -14
18:00:19.006375 542.69 1572 2404 14256 896 434 -12
18:00:19.006498 542.7 1432 2476 14268 903 432 -9
18:00:19.031353 542.71 1516 2468 14152 872 390 -19
18:00:19.039686 542.72 1536 2452 14172 887 396 -36
18:00:19.074323 542.73 1432 2532 14228 908 441 -30
18:00:19.075369 542.74 1408 2460 14268 894 446 -32
18:00:19.076451 542.75 1464 2456 14232 895 407 -55
18:00:19.079114 542.76 1368 2528 14224 924 412 -63
18:00:19.092665 542.77 1448 2560 14152 878 402 -36
18:00:19.110500 542.78 1420 2508 14200 919 439 -50
18:00:19.134729 542.79 1480 2640 14156 961 451 -40
18:00:19.142642 542.8 1332 2572 14144 911 414 -50
18:00:19.142944 542.81 1452 2780 14200 885 502 -54
18:00:19.143156 542.82 1332 2680 14052 763 413 -44
18:00:19.151160 542.83 1404 2652 14076 661 363 -66
18:00:19.172730 542.84 1300 2720 13932 684 282 -32
18:00:19.173027 542.85 1416 2616 14120 726 319 -42
18:00:19.195539 542.86 1328 2672 14240 993 487 -78
18:00:19.205530 542.87 1336 2896 14460 1172 533 -97
18:00:19.205737 542.88 1316 2896 14328 1113 508 -76
18:00:19.211215 542.89 1344 2920 14212 854 449 -67
18:00:19.213931 542.9 1340 2864 14032 653 314 -11
18:00:19.266713 542.91 1296 2768 14120 850 318 -36
18:00:19.278062 542.92 1396 2864 14364 1047 396 -15
18:00:19.278210 542.93 1256 2964 14344 635 541 35
18:00:19.278308 542.94 1308 2976 13568 -313 273 72
18:00:19.278500 542.95 1604 2732 14444 333 487 -53
18:00:19.278719 542.96 1400 3004 14444 1468 463 -142
18:00:19.283825 542.97 1256 3076 13796 376 11 12
18:00:19.308983 542.98 1512 2852 14384 802 414 -85
18:00:19.310996 542.99 1264 3032 13936 749 330 -18
18:00:19.352124 543.0 1376 2860 13592 -319 -48 115
18:00:19.352693 543.01 1420 2788 14056 611 287 2
18:00:19.354481 543.02 1276 3004 14372 1118 191 -70
18:00:19.380033 543.03 1336 3100 14496 1124 247 -90
18:00:19.380181 543.04 1332 3160 14200 945 149 -31
18:00:19.380321 543.05 1252 3184 14320 733 224 5
18:00:19.381184 543.06 1312 3276 14264 658 322 31
18:00:19.406944 543.07 1240 3264 14116 606 289 18
18:00:19.414858 543.08 1252 3268 14068 589 310 15
18:00:19.433646 543.09 1416 3140 13912 574 332 -25
18:00:19.442870 543.1 1356 3124 13792 596 309 -30
18:00:19.443222 543.11 1296 3088 13920 833 323 -67
18:00:19.469613 543.12 1524 3188 13964 1090 309 -86
18:00:19.477777 543.13 1400 3244 14068 1175 341 -80
18:00:19.477974 543.14 1360 3204 14104 1026 358 -78
18:00:19.487326 543.15 1424 3312 14160 884 371 -79
18:00:19.508110 543.16 1328 3404 14256 853 368 -73
18:00:19.575376 543.17 1320 3380 14112 728 381 -52
18:00:19.576736 543.18 1260 3392 14164 645 344 -65
18:00:19.577489 543.19 1200 3396 14104 539 321 -70
18:00:19.578603 543.2 1232 3408 14028 551 320 -33
18:00:19.582277 543.21 1228 3468 14080 532 360 -70
18:00:19.602265 543.22 1280 3372 14108 512 315 -50
18:00:19.609889 543.23 1228 3424 13912 537 319 -50
18:00:19.609990 543.24 1288 3448 14068 696 380 -84
18:00:19.610056 543.25 1408 3504 14032 820 376 -78
18:00:19.610118 543.26 1364 3484 14064 907 424 -90
18:00:19.630222 543.27 1212 3664 13996 978 404 -100
18:00:19.642711 543.28 1320 3588 14284 1001 528 -127
18:00:19.642867 543.29 1160 3704 14136 952 679 -103
18:00:19.649241 543.3 1308 3584 13752 363 404 -28
18:00:19.650892 543.31 1188 3592 13696 267 414 -51
18:00:19.651911 543.32 1192 3652 14016 574 319 -96
18:00:19.700191 543.33 1260 3680 14120 866 316 -134
18:00:19.708320 543.34 1388 3736 14088 723 245 -66
18:00:19.708548 543.35 1300 3756 13944 503 262 -56
18:00:19.708876 543.36 1140 3700 13932 566 264 -50
18:00:19.709283 543.37 1296 3740 13932 514 227 -7
18:00:19.718989 543.38 1284 3764 14032 595 275 -72
18:00:19.747651 543.39 1304 3804 13952 694 279 -94
18:00:19.749311 543.4 1268 3756 13988 734 356 -84
18:00:19.749453 543.41 1280 3812 13904 716 341 -81
18:00:19.768164 543.42 1240 3820 13988 530 399 -76
18:00:19.781029 543.43 1236 3760 14140 463 334 -45
18:00:19.782181 543.44 1176 3824 13820 486 325 -50
18:00:19.803642 543.45 1308 3844 14100 581 341 -61
18:00:19.811499 543.46 1260 3864 13852 555 319 -47
18:00:19.818913 543.47 1316 3872 13888 339 284 -32
18:00:19.820705 543.48 1264 3860 13852 420 315 -62
18:00:19.839719 543.49 1216 3856 13828 514 369 -60
18:00:19.867464 543.5 1200 3916 14040 553 359 -90
18:00:19.875682 543.51 1176 3884 13872 462 315 -62
18:00:19.875847 543.52 1148 3856 13968 426 328 -52
18:00:19.879039 543.53 1164 3848 13920 415 347 -40
18:00:19.882152 543.54 1240 3968 13812 376 349 -48
18:00:19.900979 543.55 1172 4008 13908 399 347 -58
18:00:19.912168 543.56 1244 3984 13956 395 320 -48
18:00:19.931636 543.57 1068 4120 13900 346 348 -49
18:00:19.945576 543.58 1224 4020 13808 359 324 -69
18:00:19.945775 543.59 1224 4016 13884 364 349 -77
18:00:19.968330 543.6 1140 4116 13916 336 351 -55
18:00:19.976263 543.61 1100 4068 13976 303 342 -29
18:00:19.976445 543.62 1248 4108 14016 241 331 -47
18:00:19.982190 543.63 1244 4024 14044 241 312 -16
18:00:20.004147 543.64 1240 4024 13820 235 291 -32
18:00:20.037178 543.65 1140 4060 13936 200 330 -52
18:00:20.044899 543.66 1292 4040 13832 230 296 -44
18:00:20.045114 543.67 1188 4104 13984 220 333 -40
18:00:20.045280 543.68 1180 4136 13908 202 337 -38
18:00:20.045470 543.69 1148 4060 13856 164 328 -70
18:00:20.086916 543.7 1100 4192 13968 144 312 -14
18:00:20.087904 543.71 1184 4132 13872 100 338 -21
18:00:20.089734 543.72 1200 4048 13932 85 325 -29
18:00:20.113092 543.73 1176 4148 13952 93 289 -60
18:00:20.153695 543.74 1116 4172 13824 88 321 -46
18:00:20.172105 543.75 1200 4032 13908 64 293 -59
18:00:20.180263 543.76 1188 4124 13916 14 303 -61
18:00:20.180398 543.77 1132 4224 13880 16 291 -29
18:00:20.180495 543.78 1052 4188 13812 -7 296 -22
18:00:20.180588 543.79 1200 4208 13896 -33 289 -5
18:00:20.180679 543.8 1232 4164 13936 -18 318 -28
18:00:20.180770 543.81 1100 4124 14000 -36 309 -23
18:00:20.180860 543.82 1088 4160 13972 -28 296 -48
18:00:20.205479 543.83 1116 4064 13896 -41 305 -36
18:00:20.214242 543.84 976 4132 13872 -71 283 -11
18:00:20.214472 543.85 1156 4176 13952 -78 260 -10
18:00:20.214612 543.86 1144 4132 13932 -124 261 -9
18:00:20.242401 543.87 1192 4220 13932 -134 255 -18
18:00:20.251746 543.88 1180 4188 13888 -154 258 6
18:00:20.251882 543.89 1152 4136 13808 -172 264 -28
18:00:20.276064 543.9 1068 4216 13988 -197 271 -18
18:00:20.306584 543.91 1064 4240 13988 -214 293 -32
18:00:20.313818 543.92 1144 4164 13960 -249 255 1
18:00:20.313969 543.93 992 4200 13776 -303 296 -25
18:00:20.314080 543.94 1108 4188 13848 -318 248 1
18:00:20.314185 543.95 1072 4176 14040 -380 245 -1
18:00:20.340451 543.96 1148 4088 14004 -467 273 22
18:00:20.346348 543.97 1120 4204 13960 -595 206 25
18:00:20.346644 543.98 1104 4224 13936 -656 190 24
18:00:20.358685 543.99 1192 4216 13872 -773 196 56
18:00:20.383284 544.0 1092 4132 13964 -899 193 46
18:00:20.383462 544.01 1120 4132 13968 -1029 189 73
18:00:20.383596 544.02 1220 4088 13984 -1104 235 30
18:00:20.401365 544.03 1192 4104 14112 -1279 229 61
18:00:20.422144 544.04 1124 4064 14016 -1610 173 58
18:00:20.423259 544.05 1168 4016 13924 -1683 81 94
18:00:20.424631 544.06 1192 3948 13824 -1763 49 128
18:00:20.447512 544.07 1088 3840 13780 -2010 -41 151
18:00:20.447790 544.08 1172 3796 14036 -1996 -70 179
18:00:20.448050 544.09 1172 3784 13840 -1832 -65 161
18:00:20.454173 544.1 1148 3776 14108 -1575 100 143
18:00:20.477683 544.11 1180 3784 14184 -1451 162 115
18:00:20.506012 544.12 1196 3768 14104 -1469 55 127
18:00:20.513517 544.13 1240 3700 14020 -1636 44 136
18:00:20.513701 544.14 1084 3668 13904 -1807 -5 162
18:00:20.513824 544.15 1180 3612 14028 -1607 -109 191
18:00:20.542540 544.16 1192 3676 14260 -1564 17 202
18:00:20.550547 544.17 1016 3636 13808 -2169 113 239
18:00:20.550695 544.18 1160 3544 13604 -2744 -204 247
18:00:20.551068 544.19 1528 3336 14436 -1831 52 138
18:00:20.576638 544.2 1208 3576 14000 -1103 -72 95
18:00:20.584443 544.21 1076 3452 13664 -2099 -521 242
18:00:20.618243 544.22 1400 3144 14224 -1644 -45 112
18:00:20.619251 544.23 1100 3224 13836 -1617 -110 197
18:00:20.620621 544.24 1284 3216 13564 -2434 -538 334
18:00:20.639935 544.25 1416 2996 13792 -1720 -207 190
18:00:20.646329 544.26 1428 3224 14376 -713 -88 60
18:00:20.646628 544.27 1324 3372 14420 -1026 -123 77
18:00:20.648582 544.28 1092 3280 14296 -1448 -82 157
18:00:20.656551 544.29 1140 3308 14332 -1632 -32 164
18:00:20.673894 544.3 1360 3196 14100 -1814 -58 203
18:00:20.681826 544.31 1208 3140 13976 -1858 -40 128
18:00:20.707309 544.32 1320 3060 14084 -1757 -94 150
18:00:20.715652 544.33 1264 3000 13964 -1777 -24 133
18:00:20.715826 544.34 1200 2944 13808 -1774 -76 143
18:00:20.768445 544.35 1300 2792 14040 -1547 -40 109
18:00:20.782113 544.36 1464 2856 14376 -1229 -75 78
18:00:20.782373 544.37 1364 2788 14248 -995 0 45
18:00:20.782640 544.38 1288 2828 14256 -968 -1 38
18:00:20.782934 544.39 1352 2816 14140 -1122 -10 69
18:00:20.783204 544.4 1268 2724 14160 -1192 23 59
18:00:20.793543 544.41 1504 2788 14056 -1203 -13 49
18:00:20.815377 544.42 1376 2704 14100 -1247 31 57
18:00:20.819860 544.43 1356 2712 14148 -1287 7 73
18:00:20.821099 544.44 1392 2728 14232 -1235 33 36
18:00:20.822342 544.45 1420 2656 14312 -1273 67 48
18:00:20.837933 544.46 1428 2596 14112 -1225 9 37
18:00:20.853323 544.47 1440 2668 14260 -1178 86 1
18:00:20.855036 544.48 1340 2716 14064 -1150 52 41
18:00:20.879874 544.49 1356 2612 14192 -1055 88 32
18:00:20.884363 544.5 1312 2632 14048 -984 81 44
18:00:20.884540 544.51 1360 2588 14176 -784 123 22
18:00:20.888819 544.52 1348 2760 14272 -737 177 -9
18:00:20.914255 544.53 1352 2536 14176 -872 135 -14
18:00:20.918107 544.54 1496 2536 14364 -678 412 -25
18:00:20.928564 544.55 1432 2528 13964 -1227 34 32
18:00:20.948132 544.56 1320 2400 13960 -1582 -49 63
18:00:20.950693 544.57 1472 2388 14112 -968 -43 22
18:00:20.953038 544.58 1376 2412 14324 -608 -49 -38
18:00:20.975148 544.59 1532 2484 14288 -810 -30 26
18:00:20.982709 544.6 1424 2428 14328 -875 10 11
18:00:20.986030 544.61 1344 2428 14176 -905 8 37
18:00:20.994354 544.62 1324 2444 14308 -993 18 -12
18:00:21.018545 544.63 1456 2360 14320 -953 22 -18
18:00:21.037725 544.64 1540 2288 14232 -895 63 -35
18:00:21.053040 544.65 1412 2236 14164 -864 71 -1
18:00:21.053191 544.66 1404 2260 14092 -846 72 -45
18:00:21.054662 544.67 1400 2228 14088 -867 137 -2
18:00:21.070771 544.68 1408 2184 14140 -947 162 -7
18:00:21.084924 544.69 1400 2220 14140 -929 111 -15
18:00:21.106092 544.7 1464 2264 14184 -938 114 -11
18:00:21.116348 544.71 1460 2172 14268 -907 28 -7
18:00:21.116514 544.72 1476 2128 14132 -851 21 -27
18:00:21.116639 544.73 1480 2200 14040 -891 -1 21
18:00:21.142588 544.74 1500 2152 14156 -813 25 10
18:00:21.151260 544.75 1484 2156 14184 -735 36 35
18:00:21.153824 544.76 1416 2124 14220 -592 30 20
18:00:21.156635 544.77 1528 2092 14148 -617 56 43
18:00:21.177834 544.78 1432 2068 14212 -544 94 30
18:00:21.185482 544.79 1496 2132 14136 -483 173 13
18:00:21.185713 544.8 1512 2128 14196 -385 170 27
18:00:21.188526 544.81 1476 2024 14136 -248 164 26
18:00:21.211097 544.82 1460 2172 14208 -142 202 17
18:00:21.221368 544.83 1456 2020 14268 -38 219 10
18:00:21.228897 544.84 1520 2104 14240 105 241 11
18:00:21.250572 544.85 1500 2052 14116 179 242 39
18:00:21.250676 544.86 1468 2132 14296 240 272 24
18:00:21.277023 544.87 1376 2008 14128 365 281 -7
18:00:21.283137 544.88 1460 2120 14196 456 312 5
18:00:21.283285 544.89 1484 2048 14236 581 369 -20
18:00:21.288325 544.9 1484 2148 14140 573 380 -14
18:00:21.290174 544.91 1532 2192 14280 566 384 -32
18:00:21.311291 544.92 1500 2232 14044 616 380 -60
18:00:21.318281 544.93 1540 2088 14272 629 355 -44
18:00:21.323814 544.94 1420 2244 14128 694 358 -34
18:00:21.379055 544.95 1432 2276 14212 785 341 -45
18:00:21.386255 544.96 1440 2352 14260 772 346 -24
18:00:21.386515 544.97 1344 2308 14332 782 399 -54
18:00:21.386770 544.98 1452 2324 14220 792 376 -47
18:00:21.387038 544.99 1560 2320 14228 847 402 -18
18:00:21.392973 545.0 1400 2340 14104 851 412 -27
18:00:21.408302 545.01 1384 2424 14276 935 409 -47
18:00:21.417455 545.02 1552 2508 14308 924 427 -30
18:00:21.442664 545.03 1484 2548 14116 942 415 -43
18:00:21.450727 545.04 1468 2412 14132 939 421 -36
18:00:21.451018 545.05 1412 2432 14208 951 388 -33
18:00:21.451218 545.06 1412 2440 14372 1059 437 -25
18:00:21.476764 545.07 1436 2576 14184 1120 414 3
18:00:21.485219 545.08 1464 2536 14124 1123 442 -32
18:00:21.490943 545.09 1424 2620 14372 1198 503 -20
18:00:21.492516 545.1 1328 2692 14388 1190 523 -61
18:00:21.513286 545.11 1392 2612 14196 1118 529 -69
18:00:21.523309 545.12 1360 2720 14356 1117 478 -9
18:00:21.529013 545.13 1428 2696 14184 1078 520 -63
18:00:21.531394 545.14 1308 2756 14188 1017 454 -61
18:00:21.554744 545.15 1296 2712 14172 1015 441 -38
18:00:21.555051 545.16 1304 2852 14120 1030 444 -36
18:00:21.563876 545.17 1336 2804 14168 976 438 -59
18:00:21.592014 545.18 1344 2788 14184 1007 424 -75
18:00:21.593008 545.19 1316 2896 14164 1030 371 -66
18:00:21.595023 545.2 1272 2864 14232 1040 513 -60
18:00:21.629656 545.21 1264 2864 14116 1110 548 -97
18:00:21.631321 545.22 1356 2948 14136 985 498 -81
18:00:21.652127 545.23 1344 2892 14212 905 515 -75
18:00:21.652268 545.24 1272 2992 14068 613 421 -31
18:00:21.653296 545.25 1256 2952 14164 451 338 -58
18:00:21.654502 545.26 1324 3008 14048 503 317 -41
18:00:21.661573 545.27 1352 2868 14156 716 424 -73
18:00:21.685703 545.28 1352 3048 14308 982 476 -76
18:00:21.714864 545.29 1256 3196 14092 912 429 -96
18:00:21.729819 545.3 1156 3092 14212 722 409 -67
18:00:21.729956 545.31 1180 3216 13996 565 364 -27
18:00:21.730025 545.32 1324 2952 13872 527 271 -18
18:00:21.730088 545.33 1248 3000 14072 808 338 -28
18:00:21.730151 545.34 1140 3152 14356 824 420 -6
18:00:21.746069 545.35 1204 3244 13824 139 524 56
18:00:21.756189 545.36 1300 3136 13868 -82 210 33
18:00:21.759200 545.37 1380 3116 14356 1180 572 -138
18:00:21.783823 545.38 1156 3356 14352 1403 305 -85
18:00:21.789676 545.39 1268 3216 13788 442 61 17
18:00:21.810116 545.4 1428 3168 14384 1054 580 -140
18:00:21.818168 545.41 1248 3312 13680 838 334 -24
18:00:21.818347 545.42 1288 3232 13424 -210 -32 99
18:00:21.847318 545.43 1336 3040 13792 548 341 -11
18:00:21.848970 545.44 1260 3188 13996 1164 254 -54
18:00:21.872568 545.45 1204 3424 14348 1352 211 -76
18:00:21.873125 545.46 1216 3508 14152 1255 179 -82
18:00:21.873474 545.47 1212 3560 14320 962 208 -14
18:00:21.885364 545.48 1212 3476 14160 882 273 -21
18:00:21.894075 545.49 1184 3568 14136 797 315 -31
18:00:21.916565 545.5 1280 3560 14024 742 333 -6
18:00:21.927175 545.51 1236 3504 13956 731 361 -68
18:00:21.944583 545.52 1204 3476 13824 725 388 -86
18:00:21.955685 545.53 1240 3480 13780 921 361 -84
18:00:21.955807 545.54 1180 3504 13940 1058 364 -78
18:00:21.968072 545.55 1220 3476 13980 1119 384 -86
18:00:21.994749 545.56 1212 3544 14204 1039 357 -88
18:00:21.994948 545.57 1192 3548 14144 954 327 -76
18:00:22.011550 545.58 1256 3668 14156 810 368 -77
18:00:22.022831 545.59 1268 3612 14036 757 396 -93
18:00:22.027004 545.6 1356 3728 14100 682 370 -65
18:00:22.028072 545.61 1140 3736 13888 552 350 -42
18:00:22.029430 545.62 1244 3764 14020 523 303 -57
18:00:22.045518 545.63 1304 3664 14024 545 312 -56
18:00:22.065245 545.64 1120 3788 14036 527 335 -46
18:00:22.066288 545.65 1224 3920 14132 556 326 -73
18:00:22.087541 545.66 1144 3876 13720 604 313 -50
18:00:22.087802 545.67 1092 3828 13980 664 360 -37
18:00:22.088035 545.68 1096 3800 13952 754 373 -56
18:00:22.096695 545.69 1148 3988 13936 870 421 -63
18:00:22.124226 545.7 1112 3872 13896 739 271 -126
18:00:22.125416 545.71 1196 3928 14256 1116 753 -160
18:00:22.126663 545.72 1080 4056 13828 670 503 -35
18:00:22.143525 545.73 1116 3936 13584 -58 381 -21
18:00:22.157422 545.74 1160 3784 13776 261 402 -65
18:00:22.184432 545.75 1220 3860 13852 628 390 -89
18:00:22.188887 545.76 1096 3876 13816 571 291 -80
18:00:22.189114 545.77 1128 4096 13912 355 250 -40
18:00:22.211522 545.78 1168 4008 14024 341 197 -27
18:00:22.221930 545.79 1040 4000 13964 314 233 -17
18:00:22.222196 545.8 1128 4008 13892 329 189 -55
18:00:22.222414 545.81 1184 4016 13940 399 235 -40
18:00:22.246385 545.82 1172 4012 13928 491 263 -51
18:00:22.254547 545.83 1068 4056 13916 584 292 -42
18:00:22.267835 545.84 1140 4084 13996 492 365 -72
18:00:22.289391 545.85 1060 4136 13880 376 313 -73
18:00:22.289578 545.86 1108 4124 13932 328 321 -14
18:00:22.289713 545.87 1100 3988 13824 348 326 -30
18:00:22.300893 545.88 1188 4116 14068 428 308 -52
18:00:22.302832 545.89 1028 4036 13732 333 312 -39
18:00:22.326381 545.9 1144 4100 13860 208 272 -19
18:00:22.326629 545.91 1008 4092 13864 210 307 -38
18:00:22.377338 545.92 1032 4132 13980 285 297 -20
18:00:22.389589 545.93 1084 4184 13800 260 332 -69
18:00:22.389780 545.94 1172 4148 13900 197 311 -66
18:00:22.389931 545.95 1056 4112 13744 170 305 -30
18:00:22.390083 545.96 1040 4132 14016 162 307 -12
18:00:22.390236 545.97 1136 4224 13800 146 320 -37
18:00:22.398625 545.98 1116 4216 13888 202 270 -31
18:00:22.400258 545.99 1084 4216 13944 184 331 -30
18:00:22.416406 546.0 1000 4260 13896 185 305 -40
18:00:22.448184 546.01 1016 4156 13764 185 303 -44
18:00:22.455954 546.02 1060 4232 13900 168 310 -27
18:00:22.456065 546.03 1068 4256 13900 151 329 -21
18:00:22.458263 546.04 1060 4232 13956 142 300 -33
18:00:22.459890 546.05 1104 4160 13872 76 272 -4
18:00:22.482953 546.06 1036 4288 13816 86 275 -21
18:00:22.499816 546.07 1060 4200 13864 54 299 -28
18:00:22.500815 546.08 1084 4172 13832 48 311 -39
18:00:22.502867 546.09 1136 4236 13804 25 303 -13
18:00:22.526309 546.1 1044 4256 13984 -6 337 -35
18:00:22.526483 546.11 1156 4184 14060 4 286 -32
18:00:22.556565 546.12 1140 4264 13832 -33 282 -39
18:00:22.586635 546.13 1052 4228 13812 -48 277 -13
18:00:22.589615 546.14 1060 4212 13772 -91 246 -11
18:00:22.591979 546.15 996 4208 13868 -86 280 -13
18:00:22.592786 546.16 1092 4320 13916 -118 275 -17
18:00:22.594008 546.17 1088 4240 14004 -134 231 -19
18:00:22.597275 546.18 1144 4284 13792 -146 269 -43
18:00:22.616540 546.19 1020 4280 13952 -169 295 -31
18:00:22.617052 546.2 1072 4212 13904 -247 296 -22
18:00:22.631018 546.21 1076 4224 13892 -238 274 -13
18:00:22.638950 546.22 1064 4220 13720 -319 238 -11
18:00:22.639166 546.23 964 4268 13948 -319 244 -32
18:00:22.656685 546.24 1084 4216 13864 -331 204 0
18:00:22.681947 546.25 1052 4216 13972 -387 250 11
18:00:22.708820 546.26 1100 4172 13868 -455 232 12
18:00:22.718206 546.27 1052 4296 13816 -500 196 -7
18:00:22.718378 546.28 1088 4228 13824 -586 183 37
18:00:22.718547 546.29 1088 4236 13868 -637 182 19
18:00:22.718659 546.3 1128 4220 13860 -671 124 46
18:00:22.736052 546.31 952 4136 13808 -687 142 37
18:00:22.737431 546.32 1064 4184 13868 -722 159 28
18:00:22.758444 546.33 976 4224 14012 -746 180 32
18:00:22.783390 546.34 1000 4128 13980 -813 168 53
18:00:22.802068 546.35 1120 4172 13836 -828 160 54
18:00:22.803465 546.36 1080 4132 13972 -855 130 59
18:00:22.804081 546.37 1020 4180 13944 -954 54 79
18:00:22.807020 546.38 1140 4132 13976 -947 126 94
18:00:22.827073 546.39 1104 4148 13984 -997 121 57
18:00:22.827220 546.4 1032 4056 13872 -1049 107 71
18:00:22.834139 546.41 1096 3972 13968 -1094 145 62
18:00:22.837296 546.42 1064 3996 13896 -1115 112 77
18:00:22.861961 546.43 972 3936 13852 -1204 87 51
18:00:22.862263 546.44 1012 3928 13880 -1162 93 108
18:00:22.868974 546.45 1080 3932 13932 -1133 44 87
18:00:22.924247 546.46 1132 3988 13884 -1231 61 95
18:00:22.927176 546.47 1196 3920 14012 -1199 71 98
18:00:22.928278 546.48 1032 3936 13964 -1224 137 108
18:00:22.929399 546.49 1132 3864 13908 -1223 118 90
18:00:22.930651 546.5 1068 3900 13820 -1316 125 98
18:00:22.957271 546.51 1048 3764 13920 -1453 57 78
18:00:22.964926 546.52 1040 3796 13816 -1602 1 128
18:00:22.965149 546.53 1120 3700 13756 -1584 -81 146
18:00:23.025815 546.54 1220 3524 14004 -1214 65 115
18:00:23.026855 546.55 1192 3724 14152 -985 115 104
18:00:23.027588 546.56 1060 3764 14188 -1101 94 105
18:00:23.028755 546.57 964 3640 13956 -1302 142 108
18:00:23.031777 546.58 932 3596 13768 -1514 -27 117
18:00:23.039768 546.59 1184 3528 13980 -1508 -71 155
18:00:23.059508 546.6 1128 3452 14104 -1252 26 142
18:00:23.059646 546.61 1124 3572 14024 -1411 132 176
18:00:23.059751 546.62 1012 3640 13708 -2185 85 227
18:00:23.059850 546.63 1308 3392 14036 -2236 -155 164
18:00:23.073484 546.64 1300 3360 14576 -915 163 38
18:00:23.096463 546.65 984 3588 13908 -1238 -307 142
18:00:23.096608 546.66 1256 3320 14156 -1805 -313 162
18:00:23.148058 546.67 1284 3244 14208 -1274 64 103
18:00:23.161637 546.68 1048 3344 13600 -2201 -514 319
18:00:23.162016 546.69 1368 2980 13652 -2467 -492 323
18:00:23.162382 546.7 1296 3180 14052 -1388 -199 182
18:00:23.162743 546.71 1360 3280 14432 -1169 -311 141
18:00:23.163139 546.72 1356 3236 14584 -1158 -92 114
18:00:23.163493 546.73 1128 3128 14184 -1061 -3 115
18:00:23.163851 546.74 1192 3236 14244 -1312 -168 201
18:00:23.168776 546.75 1152 3060 14148 -1394 -71 156
18:00:23.193953 546.76 1216 3096 14176 -1321 17 154
18:00:23.196331 546.77 1212 3084 14172 -1379 -47 146
18:00:23.217060 546.78 1204 2936 13920 -1506 25 107
18:00:23.226374 546.79 1240 2884 13900 -1431 -49 118
18:00:23.259385 546.8 1404 2932 14008 -1073 -37 68
18:00:23.260640 546.81 1388 2892 14124 -831 -7 42
18:00:23.261672 546.82 1268 2768 14404 -596 72 34
18:00:23.264609 546.83 1340 2904 14284 -650 56 68
18:00:23.266997 546.84 1240 2920 14280 -853 6 66
18:00:23.292516 546.85 1336 2860 14272 -1157 80 67
18:00:23.300833 546.86 1240 2832 14168 -1266 77 59
18:00:23.335349 546.87 1364 2756 14112 -1240 4 55
18:00:23.336633 546.88 1276 2788 14112 -1316 7 79
18:00:23.339349 546.89 1308 2724 14060 -1431 11 74
18:00:23.361007 546.9 1280 2752 14208 -1386 34 49
18:00:23.361127 546.91 1404 2696 14092 -1260 4 37
18:00:23.361198 546.92 1376 2588 14076 -1120 24 34
18:00:23.373785 546.93 1412 2620 14240 -1024 65 31
18:00:23.396421 546.94 1412 2624 14092 -856 74 62
18:00:23.396572 546.95 1392 2584 14260 -785 136 36
18:00:23.421947 546.96 1348 2728 14220 -650 126 16
18:00:23.453721 546.97 1280 2656 14188 -796 19 18
18:00:23.461385 546.98 1360 2544 14392 -537 286 -24
18:00:23.461515 546.99 1392 2672 14176 -715 148 46
18:00:23.461601 547.0 1428 2532 13748 -1419 -55 82
18:00:23.461682 547.01 1532 2336 14096 -864 -128 34
18:00:23.471291 547.02 1488 2404 14208 -434 1 -23
18:00:23.472325 547.03 1424 2556 14348 -536 40 -19
18:00:23.488079 547.04 1468 2488 14156 -783 46 32
18:00:23.497628 547.05 1400 2540 14236 -910 -40 58
18:00:23.518510 547.06 1388 2472 14236 -983 -67 58
18:00:23.529102 547.07 1436 2500 14268 -984 -39 -4
18:00:23.530646 547.08 1408 2400 14116 -940 14 17
18:00:23.531756 547.09 1624 2312 14172 -884 16 4
18:00:23.555972 547.1 1468 2428 14296 -792 82 9
18:00:23.564783 547.11 1360 2360 14308 -785 131 2
18:00:23.568539 547.12 1388 2408 14240 -873 121 2
18:00:23.570142 547.13 1504 2280 14088 -933 81 19
18:00:23.590988 547.14 1436 2168 14096 -850 51 -7
18:00:23.597075 547.15 1432 2272 14324 -730 47 -10
18:00:23.603930 547.16 1452 2224 14188 -743 27 -11
18:00:23.631904 547.17 1472 2188 14148 -671 1 29
18:00:23.633209 547.18 1400 2112 14008 -552 87 20
18:00:23.634341 547.19 1448 2136 14140 -439 73 5
18:00:23.651044 547.2 1456 2200 14132 -431 81 -7
18:00:23.664732 547.21 1508 2236 14192 -460 122 59
18:00:23.664936 547.22 1420 2160 14104 -393 128 57
18:00:23.671505 547.23 1540 2212 14080 -250 164 27
18:00:23.688826 547.24 1496 2200 14160 -126 238 6
18:00:23.698642 547.25 1428 2228 14148 5 198 19
18:00:23.701294 547.26 1484 2208 14112 136 195 45
18:00:23.726473 547.27 1452 2216 14104 284 257 -10
18:00:23.731231 547.28 1508 2292 14116 410 327 5
18:00:23.757209 547.29 1464 2200 14168 478 309 -30
18:00:23.765317 547.3 1464 2204 14168 522 365 -15
18:00:23.765486 547.31 1432 2356 14164 610 417 -15
18:00:23.769646 547.32 1348 2344 14196 579 379 -41
18:00:23.789689 547.33 1392 2308 14148 667 408 -22
18:00:23.798355 547.34 1376 2352 14168 731 387 -36
18:00:23.819580 547.35 1452 2388 14308 790 389 -38
18:00:23.830131 547.36 1312 2316 14328 857 421 -31
18:00:23.830299 547.37 1508 2288 14208 800 411 -30
18:00:23.888030 547.38 1412 2356 14212 830 432 -48
18:00:23.897148 547.39 1336 2440 14196 916 442 -68
18:00:23.897349 547.4 1344 2472 14244 920 447 -45
18:00:23.897615 547.41 1332 2376 14204 893 412 -49
18:00:23.897852 547.42 1412 2460 14068 944 337 -25
18:00:23.898069 547.43 1424 2504 14208 1028 365 -37
18:00:23.898247 547.44 1452 2464 14076 1194 367 -51
18:00:23.906015 547.45 1356 2516 14176 1316 426 -41
18:00:23.907646 547.46 1256 2620 14044 1362 474 -79
18:00:23.927766 547.47 1436 2688 14192 1363 498 -65
18:00:23.943161 547.48 1500 2664 14204 1408 521 -51
18:00:23.969362 547.49 1352 2760 14212 1355 485 -91
18:00:23.970569 547.5 1392 2764 14132 1358 532 -100
18:00:23.971672 547.51 1400 2824 14040 1394 535 -96
18:00:23.992220 547.52 1292 2844 14200 1415 556 -90
18:00:23.999878 547.53 1312 2884 14204 1308 550 -77
18:00:24.000049 547.54 1256 2992 14280 1306 560 -77
18:00:24.001151 547.55 1284 2984 14124 1299 529 -97
18:00:24.026403 547.56 1284 3040 14248 1224 517 -97
18:00:24.031239 547.57 1264 2936 14084 1173 478 -52
18:00:24.041176 547.58 1324 3012 14152 1212 503 -78
18:00:24.043235 547.59 1340 3032 14084 1212 558 -82
18:00:24.063668 547.6 1316 3064 14168 1113 506 -91
18:00:24.066976 547.61 1340 3100 14108 1130 516 -70
18:00:24.090987 547.62 1224 3176 14068 1155 456 -114
18:00:24.098777 547.63 1324 3180 14388 1110 487 -87
18:00:24.098943 547.64 1256 3216 13860 1015 404 -83
18:00:24.127071 547.65 1188 3156 13968 1016 469 -62
18:00:24.133926 547.66 1284 3196 14312 1345 540 -132
18:00:24.134072 547.67 1340 3280 14248 1407 604 -157
18:00:24.144297 547.68 1224 3376 14332 1254 581 -128
18:00:24.165412 547.69 1208 3348 13936 1090 606 -141
18:00:24.165528 547.7 1220 3416 13992 811 460 -87
