18:03:00.005811 694.23 1260 3624 13824 727 340 -53
18:03:00.016494 694.24 1268 3620 14060 1016 546 -109
18:03:00.049431 694.25 1256 3744 14200 1260 587 -109
18:03:00.052454 694.26 1164 3812 14132 1177 551 -144
18:03:00.057164 694.27 1180 3924 14040 888 481 -106
18:03:00.059076 694.28 1216 3816 13844 742 429 -63
18:03:00.060607 694.29 1212 3852 14000 781 399 -90
18:03:00.061394 694.3 1104 3896 14088 674 347 1
18:03:00.062672 694.31 1040 3908 13708 162 341 60
18:03:00.083041 694.32 1200 3760 13752 -194 122 38
18:03:00.140109 694.33 1428 3784 14444 910 612 -142
18:03:00.148240 694.34 1148 4016 14336 1445 568 -170
18:03:00.167973 694.35 1104 3980 13656 376 -28 2
18:03:00.187618 694.36 1284 3880 14052 406 299 -38
18:03:00.187790 694.37 1016 4016 13692 147 282 19
18:03:00.187910 694.38 1132 3712 13516 -357 -35 108
18:03:00.188023 694.39 1180 3704 13608 233 293 8
18:03:00.188134 694.4 1192 3880 13988 659 343 -60
18:03:00.188244 694.41 1172 3968 14232 909 153 -68
18:03:00.188351 694.42 1080 4032 14100 712 118 -29
18:03:00.225198 694.43 1124 4112 14088 476 140 26
18:03:00.226226 694.44 1052 4132 14092 410 132 63
18:03:00.226888 694.45 1120 4088 14040 376 286 -29
18:03:00.239747 694.46 1132 4140 13800 407 347 -74
18:03:00.247047 694.47 1096 4100 13832 439 381 -61
18:03:00.261317 694.48 1140 4132 13836 513 282 -35
18:03:00.264702 694.49 1172 4008 13696 596 300 -52
18:03:00.264940 694.5 1148 4040 13856 717 270 -57
18:03:00.298985 694.51 1200 4152 14048 692 270 -24
18:03:00.299783 694.52 1140 4136 14032 652 274 -47
18:03:00.339573 694.53 1144 4044 13944 564 203 -18
18:03:00.366240 694.54 1156 4096 13832 434 309 -35
18:03:00.367182 694.55 1160 4100 13836 328 391 -61
18:03:00.368269 694.56 1120 4268 14052 209 357 2
18:03:00.369643 694.57 1112 4064 13960 218 310 -23
18:03:00.370832 694.58 1124 4188 13912 184 274 -10
18:03:00.375086 694.59 1168 4272 13788 156 329 -8
18:03:00.378558 694.6 1068 4236 13720 303 221 -29
18:03:00.402321 694.61 1140 4292 13856 320 353 -13
18:03:00.402590 694.62 1068 4336 13888 242 391 -43
18:03:00.454103 694.63 1192 4252 13868 410 330 -52
18:03:00.468876 694.64 1036 4388 13908 596 169 -56
18:03:00.469455 694.65 1128 4376 14008 606 256 -71
18:03:00.469717 694.66 1100 4404 14036 411 843 -142
18:03:00.469957 694.67 872 4232 13780 237 208 -4
18:03:00.496705 694.68 1040 4168 13384 -196 262 25
18:03:00.525674 694.69 1148 4208 13864 296 373 -82
18:03:00.534509 694.7 1288 4380 13964 667 352 -94
18:03:00.534724 694.71 1064 4452 13748 140 369 -61
18:03:00.534866 694.72 996 4216 13620 145 144 -1
18:03:00.559822 694.73 1048 4344 13872 23 188 11
18:03:00.573448 694.74 1028 4336 13860 -53 276 -17
18:03:00.589112 694.75 1088 4300 13880 -31 189 0
18:03:00.605883 694.76 1076 4424 13792 -32 191 -22
18:03:00.606211 694.77 1148 4408 13920 2 185 -17
18:03:00.608285 694.78 1164 4440 13752 90 145 12
18:03:00.609868 694.79 1040 4396 14056 -15 273 8
18:03:00.610831 694.8 1144 4272 13752 -260 289 18
18:03:00.613973 694.81 1164 4336 13764 -77 209 -1
18:03:00.637057 694.82 1152 4392 13924 2 276 -9
18:03:00.664348 694.83 1164 4268 13952 -138 222 -2
18:03:00.670087 694.84 1168 4312 13856 -224 166 8
18:03:00.670333 694.85 1024 4336 13876 -168 239 10
18:03:00.670548 694.86 1044 4252 13836 -159 270 16
18:03:00.670759 694.87 1068 4356 13824 -176 256 -11
18:03:00.680548 694.88 1116 4352 13816 -246 242 -7
18:03:00.681656 694.89 1208 4328 13808 -315 228 12
18:03:00.703540 694.9 1116 4260 13920 -275 254 45
18:03:00.703671 694.91 1088 4420 14044 -276 218 33
18:03:00.729209 694.92 1136 4392 13992 -268 216 44
18:03:00.736841 694.93 1096 4432 13892 -305 185 18
18:03:00.737096 694.94 1044 4424 13752 -323 172 29
18:03:00.737300 694.95 1048 4364 13804 -350 209 50
18:03:00.756780 694.96 1072 4340 14040 -382 244 -2
18:03:00.778785 694.97 1124 4372 13780 -419 215 6
18:03:00.779531 694.98 1008 4412 13984 -597 172 43
18:03:00.780694 694.99 1036 4268 13864 -733 137 67
18:03:00.801803 695.0 1020 4336 13824 -820 95 83
18:03:00.801957 695.01 1164 4264 13936 -855 74 101
18:03:00.812572 695.02 1172 4352 13776 -928 16 121
18:03:00.814748 695.03 1020 4240 13900 -974 11 143
18:03:00.864780 695.04 1116 4216 13920 -994 -19 144
18:03:00.868944 695.05 1096 4132 13860 -1009 9 125
18:03:00.869860 695.06 1220 4236 13852 -1071 65 136
18:03:00.873133 695.07 1048 4196 13944 -1109 93 102
18:03:00.875881 695.08 1184 4256 13912 -1139 63 120
18:03:00.876989 695.09 1212 4100 13792 -1231 55 139
18:03:00.895872 695.1 1128 4116 13796 -1279 41 129
18:03:00.907730 695.11 1200 4088 13820 -1299 97 132
18:03:00.907895 695.12 1204 4056 13856 -1501 76 170
18:03:00.936726 695.13 1144 3992 13876 -1534 16 151
18:03:00.940236 695.14 1012 4112 13808 -1531 31 186
18:03:00.940462 695.15 1128 4008 13960 -1627 35 170
18:03:00.945521 695.16 1032 4008 13988 -1700 38 185
18:03:00.958590 695.17 1200 4024 13944 -1759 -30 151
18:03:00.998579 695.18 1208 3764 13860 -1764 -18 154
18:03:01.002623 695.19 1164 3744 13924 -1767 6 160
18:03:01.002947 695.2 1112 3800 14004 -1713 -12 152
18:03:01.007449 695.21 1108 3708 13916 -1651 31 182
18:03:01.009184 695.22 1284 3696 14124 -1559 69 121
18:03:01.013044 695.23 1096 3644 14032 -1476 130 118
18:03:01.028863 695.24 1076 3636 14144 -1643 65 152
18:03:01.066203 695.25 1124 3636 13896 -1843 -40 165
18:03:01.075302 695.26 1256 3532 13900 -1939 -128 202
18:03:01.096916 695.27 1148 3420 13932 -1872 -110 196
18:03:01.107212 695.28 1224 3424 14000 -1683 -2 127
18:03:01.107403 695.29 1244 3468 14224 -1289 180 79
18:03:01.107554 695.3 1300 3496 14256 -1207 136 89
18:03:01.110683 695.31 1184 3500 14164 -1538 -30 124
18:03:01.127458 695.32 1224 3472 13944 -1755 -130 146
18:03:01.136390 695.33 1196 3308 14040 -1594 -159 150
18:03:01.163785 695.34 1260 3188 14128 -1393 -160 147
18:03:01.172610 695.35 1144 3304 14044 -1995 -205 220
18:03:01.172771 695.36 1376 3228 13400 -2586 -233 217
18:03:01.172883 695.37 1464 3132 14392 -1756 213 29
18:03:01.173091 695.38 1200 3244 14240 -651 95 17
18:03:01.222934 695.39 1152 3284 13720 -1943 -723 198
18:03:01.242293 695.4 1444 2900 14340 -1756 -273 134
18:03:01.242573 695.41 1260 3024 13836 -1527 -78 150
18:03:01.242888 695.42 1292 2992 13644 -2225 -575 267
18:03:01.243043 695.43 1440 2840 13876 -1504 -133 141
18:03:01.247741 695.44 1472 3016 14240 -676 134 -16
18:03:01.249068 695.45 1420 3156 14492 -732 60 29
18:03:01.273390 695.46 1388 3096 14336 -1237 -30 86
18:03:01.274576 695.47 1268 3020 14328 -1376 -21 124
18:03:01.275704 695.48 1248 3000 14332 -1528 32 156
18:03:01.282838 695.49 1272 2936 14196 -1669 -6 166
18:03:01.305330 695.5 1336 2868 14116 -1608 -4 119
18:03:01.305443 695.51 1336 2780 14160 -1748 -163 136
18:03:01.333512 695.52 1384 2788 13984 -1786 -166 134
18:03:01.337623 695.53 1476 2644 13880 -1500 51 60
18:03:01.337719 695.54 1388 2600 14044 -1190 -47 70
18:03:01.342938 695.55 1528 2596 13976 -893 36 48
18:03:01.368896 695.56 1428 2616 14388 -705 115 27
18:03:01.377168 695.57 1468 2732 14376 -779 45 22
18:03:01.377326 695.58 1372 2580 14272 -865 92 35
18:03:01.380378 695.59 1428 2592 14160 -896 119 47
18:03:01.462085 695.6 1452 2520 14304 -1006 144 -8
18:03:01.470714 695.61 1480 2588 14236 -1171 73 45
18:03:01.470972 695.62 1512 2568 14152 -1139 3 41
18:03:01.473018 695.63 1384 2484 14236 -1172 41 36
18:03:01.475522 695.64 1412 2416 14144 -1209 4 49
18:03:01.476763 695.65 1452 2488 13996 -1162 11 60
18:03:01.477893 695.66 1504 2544 14032 -1003 115 23
18:03:01.479071 695.67 1460 2468 14228 -970 64 55
18:03:01.488775 695.68 1356 2520 14248 -823 164 52
18:03:01.533296 695.69 1424 2528 14244 -741 188 31
18:03:01.544350 695.7 1464 2448 14132 -717 195 6
18:03:01.544546 695.71 1500 2468 14420 -673 153 25
18:03:01.544700 695.72 1432 2440 14424 -524 365 -9
18:03:01.544846 695.73 1424 2416 14080 -1009 57 63
18:03:01.547588 695.74 1460 2228 14032 -1021 75 34
18:03:01.549319 695.75 1516 2368 14224 -781 57 26
18:03:01.562494 695.76 1476 2204 14260 -560 40 22
18:03:01.575735 695.77 1612 2348 14264 -611 46 12
18:03:01.576028 695.78 1544 2292 14264 -705 94 36
18:03:01.640353 695.79 1456 2368 14372 -707 96 10
18:03:01.645523 695.8 1516 2320 14404 -801 8 15
18:03:01.648348 695.81 1444 2336 14304 -741 71 25
18:03:01.649592 695.82 1452 2268 14176 -700 87 -16
18:03:01.650830 695.83 1520 2208 14416 -591 121 -20
18:03:01.652778 695.84 1452 2216 14128 -407 207 10
18:03:01.675195 695.85 1448 2280 14224 -460 219 3
18:03:01.675307 695.86 1460 2128 14276 -474 220 27
18:03:01.675374 695.87 1512 2188 14168 -466 224 18
18:03:01.709811 695.88 1572 2112 14256 -341 193 18
18:03:01.710876 695.89 1516 2152 14124 -264 150 15
18:03:01.711900 695.9 1628 2160 14136 -151 171 24
18:03:01.728039 695.91 1540 2088 14096 -62 185 21
18:03:01.741890 695.92 1460 2108 14036 188 286 23
18:03:01.742279 695.93 1500 2120 14196 290 267 -18
18:03:01.742655 695.94 1508 2136 14108 310 300 -16
18:03:01.769145 695.95 1436 2172 14240 392 338 -21
18:03:01.779502 695.96 1564 2248 14076 421 346 -16
18:03:01.779739 695.97 1464 2248 14132 547 414 -5
18:03:01.779974 695.98 1528 2268 14120 680 491 -24
18:03:01.785350 695.99 1396 2328 14188 741 428 -43
18:03:01.801846 696.0 1504 2368 14264 880 438 -57
18:03:01.876001 696.01 1476 2344 14276 1000 488 -69
18:03:01.879111 696.02 1456 2432 14236 1051 475 -60
18:03:01.879266 696.03 1508 2452 14184 1036 485 -39
18:03:01.879399 696.04 1476 2364 14136 1101 507 -44
18:03:01.881646 696.05 1396 2416 14248 1082 467 -36
18:03:01.883002 696.06 1428 2380 14156 1068 420 -36
18:03:01.906955 696.07 1408 2460 14248 1120 418 -31
18:03:01.912684 696.08 1548 2408 14172 1131 464 -56
18:03:01.912800 696.09 1532 2556 14196 1175 443 -69
18:03:01.913010 696.1 1428 2452 14124 1264 443 -52
18:03:01.936970 696.11 1492 2656 14284 1312 435 -58
18:03:01.999190 696.12 1456 2560 14060 1394 498 -85
18:03:02.009663 696.13 1544 2620 14140 1451 514 -83
18:03:02.010012 696.14 1428 2708 14168 1460 516 -81
18:03:02.010246 696.15 1524 2824 14208 1587 554 -108
18:03:02.010465 696.16 1372 2652 14128 1612 574 -114
18:03:02.010682 696.17 1348 2732 14244 1578 596 -89
18:03:02.010925 696.18 1308 2848 14140 1531 543 -92
18:03:02.011089 696.19 1420 3004 14184 1510 571 -107
18:03:02.019993 696.2 1348 2896 14148 1518 580 -119
18:03:02.046664 696.21 1352 2964 14184 1411 530 -102
18:03:02.096738 696.22 1392 3064 14232 1496 532 -84
18:03:02.107932 696.23 1324 3076 14252 1487 474 -99
18:03:02.108192 696.24 1320 3164 14040 1353 506 -55
18:03:02.108396 696.25 1344 3224 14072 1193 478 -46
18:03:02.108584 696.26 1340 3156 13952 1036 405 -35
18:03:02.108828 696.27 1300 3248 13976 1050 378 -40
18:03:02.109029 696.28 1312 3120 14100 1400 568 -66
18:03:02.109212 696.29 1384 3252 14200 1550 693 -117
18:03:02.162214 696.3 1248 3352 14216 1597 694 -118
18:03:02.177985 696.31 1264 3404 14132 1363 616 -108
18:03:02.178437 696.32 1228 3420 14084 1071 512 -63
18:03:02.178809 696.33 1252 3332 14020 991 457 -68
18:03:02.179074 696.34 1224 3276 14188 1172 439 -77
18:03:02.215809 696.35 1116 3400 14260 936 439 -20
18:03:02.220212 696.36 1148 3468 13640 27 280 66
18:03:02.222577 696.37 1452 3272 13928 375 355 -28
18:03:02.247801 696.38 1408 3468 14672 1730 777 -263
18:03:02.248368 696.39 1152 3696 14084 1352 393 -115
18:03:02.249724 696.4 1252 3548 14032 382 68 -13
18:03:02.251145 696.41 1356 3472 14212 854 632 -104
18:03:02.252030 696.42 972 3576 13540 262 184 51
18:03:02.267278 696.43 1240 3304 13628 -41 123 93
18:03:02.305341 696.44 1180 3380 13988 934 405 -3
18:03:02.313116 696.45 1208 3644 14360 1263 307 -96
18:03:02.313218 696.46 1088 3648 14396 1298 206 -32
18:03:02.313286 696.47 1072 3688 14168 1090 211 -28
18:03:02.313350 696.48 1020 3840 14192 1026 291 -5
18:03:02.342447 696.49 1152 3780 14216 867 296 12
18:03:02.347920 696.5 1192 3744 14100 776 363 -13
18:03:02.348025 696.51 1180 3888 13956 758 388 -31
18:03:02.348092 696.52 1256 3784 13896 767 404 -29
18:03:02.385245 696.53 1176 3696 13676 857 378 -42
18:03:02.386191 696.54 1192 3724 13736 937 375 -38
18:03:02.387279 696.55 1268 3724 13904 1031 373 -57
18:03:02.432613 696.56 1148 3840 14016 1135 395 -109
18:03:02.442941 696.57 1252 3852 14108 1046 326 -100
18:03:02.443124 696.58 1216 3860 13976 921 377 -86
18:03:02.443250 696.59 1276 3840 13860 827 384 -67
18:03:02.443367 696.6 1264 3972 13772 732 396 -31
18:03:02.469328 696.61 1056 3980 14020 684 386 -56
18:03:02.477538 696.62 1124 3960 13980 607 333 -56
18:03:02.477703 696.63 1096 3964 13992 540 327 -28
18:03:02.477818 696.64 1128 3976 13872 504 346 -73
18:03:02.542774 696.65 1208 3996 13880 569 341 -20
18:03:02.547273 696.66 1000 3984 13828 548 378 -68
18:03:02.547415 696.67 1068 4008 13624 640 378 -53
18:03:02.553449 696.68 1040 4108 13916 674 457 -60
18:03:02.565842 696.69 1064 4016 13868 797 459 -64
18:03:02.578458 696.7 1096 4204 13872 730 333 -91
18:03:02.646438 696.71 1196 4152 14184 855 581 -136
18:03:02.647342 696.72 912 4224 13860 733 597 -67
18:03:02.648588 696.73 1092 4192 13660 116 354 0
18:03:02.649893 696.74 1116 4036 13716 356 427 -50
18:03:02.651640 696.75 1072 4140 14060 689 507 -137
18:03:02.653961 696.76 1072 4224 13888 712 413 -110
18:03:02.679107 696.77 1104 4172 13816 409 327 -40
18:03:02.682687 696.78 1016 4304 13832 290 242 -26
18:03:02.683043 696.79 1016 4204 13824 296 279 -20
18:03:02.754098 696.8 1064 4296 13796 270 256 -10
18:03:02.769791 696.81 1104 4376 13800 359 279 -47
18:03:02.870715 696.82 1104 4308 13924 291 308 -38
18:03:02.882061 696.83 1088 4352 13912 198 280 -12
18:03:02.883213 696.84 1064 4204 13900 114 310 -9
18:03:02.885478 696.85 1080 4348 13884 165 322 -19
18:03:02.887199 696.86 1020 4340 14028 240 305 -41
18:03:02.951842 696.87 1036 4364 13804 100 299 -13
18:03:02.972163 696.88 1140 4332 13860 38 263 -25
18:03:03.023205 696.89 1076 4320 13936 40 318 -32
18:03:03.031360 696.9 1076 4284 13848 -43 322 -30
18:03:03.031520 696.91 944 4336 13884 -165 274 -1
18:03:03.086617 696.92 912 4308 13752 -260 222 31
18:03:03.099849 696.93 992 4252 13968 -302 237 47
18:03:03.100116 696.94 1020 4320 13760 -330 205 25
18:03:03.100356 696.95 1120 4264 13828 -342 209 25
18:03:03.100580 696.96 956 4344 13900 -319 212 35
18:03:03.100799 696.97 1096 4360 14116 -750 224 52
18:03:03.127360 696.98 996 4304 13768 -1077 39 80
18:03:03.138104 696.99 1020 4260 13852 -1460 -6 125
18:03:03.138205 697.0 1008 4224 14060 -1531 3 131
18:03:03.138278 697.01 1084 4060 14132 -1656 24 147
18:03:03.138347 697.02 1164 3916 14024 -1885 -97 208
18:03:03.138422 697.03 1132 3860 13872 -1662 -41 197
18:03:03.158602 697.04 1168 3824 13964 -1525 -18 128
18:03:03.187450 697.05 1088 3820 14012 -1542 92 153
18:03:03.201920 697.06 1172 3760 13904 -1595 86 143
18:03:03.202049 697.07 1152 3776 13944 -1742 11 146
18:03:03.202122 697.08 1212 3704 13940 -1675 -27 182
18:03:03.202191 697.09 1220 3764 14008 -1583 -53 157
18:03:03.202259 697.1 1156 3688 13924 -1578 0 158
18:03:03.202327 697.11 1056 3664 14132 -1415 63 130
18:03:03.202393 697.12 1124 3604 14232 -1618 63 98
18:03:03.228754 697.13 1084 3556 13980 -1908 -30 136
18:03:03.236601 697.14 1140 3464 14004 -2099 -155 174
18:03:03.252344 697.15 1180 3344 13720 -1949 -156 164
18:03:03.274546 697.16 1236 3352 14080 -1540 58 95
18:03:03.276390 697.17 1268 3572 14252 -1293 80 77
18:03:03.293418 697.18 1148 3512 14332 -1441 43 79
18:03:03.300179 697.19 1088 3364 14144 -1709 -102 141
18:03:03.300312 697.2 1108 3292 14068 -1910 -238 193
18:03:03.300488 697.21 1248 3200 14068 -1785 -253 163
18:03:03.322983 697.22 1104 3156 14424 -1743 -163 177
18:03:03.332329 697.23 1240 3388 13992 -2392 7 254
18:03:03.332542 697.24 1280 3028 13632 -2943 -421 249
18:03:03.332717 697.25 1360 3028 14536 -1669 8 49
18:03:03.348191 697.26 1236 3096 14188 -1092 -199 91
18:03:03.376434 697.27 1180 3036 13788 -2260 -825 228
18:03:03.376812 697.28 1316 2856 14292 -1432 47 72
18:03:03.377311 697.29 1140 2948 13608 -1989 -510 238
18:03:03.386781 697.3 1288 2780 13816 -2049 -392 237
18:03:03.395964 697.31 1456 2808 14244 -1181 45 53
18:03:03.407792 697.32 1268 3104 14504 -815 68 31
18:03:03.416351 697.33 1360 3088 14412 -1216 -18 40
18:03:03.442438 697.34 1256 2980 14416 -1546 -65 126
18:03:03.450347 697.35 1244 3012 14340 -1706 -73 122
18:03:03.450441 697.36 1248 2832 14228 -1850 -68 162
18:03:03.450505 697.37 1356 2824 14164 -1973 -118 111
18:03:03.474475 697.38 1272 2688 14024 -1986 -107 102
18:03:03.483486 697.39 1332 2556 14048 -2007 -166 138
18:03:03.491275 697.4 1420 2528 14048 -1873 -185 99
18:03:03.493620 697.41 1460 2392 13840 -1669 -171 101
18:03:03.505076 697.42 1472 2504 14084 -1260 -127 87
18:03:03.516452 697.43 1496 2408 14308 -969 -4 70
18:03:03.517726 697.44 1400 2544 14296 -868 -1 46
18:03:03.525498 697.45 1420 2444 14448 -960 45 3
18:03:03.572770 697.46 1424 2404 14268 -1043 5 61
18:03:03.586094 697.47 1432 2436 14340 -1035 6 40
18:03:03.586359 697.48 1484 2400 14332 -1155 -2 50
18:03:03.586621 697.49 1484 2456 14124 -1336 -42 42
18:03:03.587528 697.5 1400 2392 14256 -1509 -70 66
18:03:03.589162 697.51 1404 2276 14308 -1521 -17 43
18:03:03.610099 697.52 1476 2324 14128 -1587 -70 21
18:03:03.620202 697.53 1448 2344 14268 -1615 1 42
18:03:03.624860 697.54 1476 2352 14272 -1411 1 29
18:03:03.626176 697.55 1448 2300 14176 -1453 59 17
18:03:03.648287 697.56 1404 2188 14192 -1331 4 13
18:03:03.651263 697.57 1428 2256 14348 -1197 5 25
18:03:03.660639 697.58 1444 2140 14092 -1265 -55 29
18:03:03.672928 697.59 1500 2012 14440 -995 177 12
18:03:03.714203 697.6 1440 2192 14136 -983 117 28
18:03:03.718961 697.61 1536 2036 14020 -1278 -73 67
18:03:03.719087 697.62 1404 1916 14052 -1041 -9 43
18:03:03.719188 697.63 1492 1892 14228 -558 -1 -14
18:03:03.748954 697.64 1556 2016 14188 -204 110 4
18:03:03.751809 697.65 1632 2044 14132 -177 151 19
18:03:03.752069 697.66 1492 1904 14332 -45 104 20
18:03:03.818096 697.67 1544 2004 14092 89 119 24
18:03:03.823198 697.68 1576 1912 13872 305 158 18
18:03:03.823371 697.69 1448 1824 13996 574 275 -26
18:03:03.823474 697.7 1596 1944 14124 900 364 -29
18:03:03.823561 697.71 1520 1948 14056 1276 461 -47
18:03:03.824474 697.72 1552 2048 14104 1627 478 -73
18:03:03.848949 697.73 1416 2148 14072 1760 576 -73
18:03:03.857370 697.74 1340 2176 14236 1955 698 -88
18:03:03.857529 697.75 1428 2212 14472 2305 907 -136
18:03:03.857768 697.76 1352 2464 14248 2446 763 -164
18:03:03.864097 697.77 1484 2432 14372 2249 732 -140
18:03:03.937324 697.78 1364 2428 14400 2259 864 -168
18:03:03.953498 697.79 1208 2580 14288 1846 611 -123
18:03:03.953591 697.8 1332 2544 14224 1574 590 -90
18:03:03.953657 697.81 1372 2548 14204 1585 614 -92
18:03:03.953720 697.82 1472 2484 14160 1550 464 -111
18:03:03.953782 697.83 1380 2536 13832 1125 536 -82
18:03:03.964301 697.84 1208 2592 13936 1189 440 -63
18:03:03.966438 697.85 1476 2704 14244 1476 619 -104
18:03:03.990829 697.86 1392 2828 14376 1626 753 -165
18:03:04.021339 697.87 1420 2724 14388 1387 622 -119
18:03:04.043134 697.88 1376 2784 14340 893 600 -110
18:03:04.082120 697.89 1248 2832 14196 698 600 -99
18:03:04.149731 697.9 1404 2808 14076 694 403 -121
18:03:04.158287 697.91 1392 2820 14252 612 393 -70
18:03:04.158504 697.92 1296 2768 14184 557 507 -64
18:03:04.158738 697.93 1272 2852 14040 470 325 -28
18:03:04.179166 697.94 1392 2900 14240 337 341 -16
18:03:04.251531 697.95 1380 2776 14060 494 330 -46
18:03:04.252582 697.96 1408 2840 14092 569 191 5
18:03:04.253876 697.97 1492 2776 14108 225 402 13
18:03:04.255033 697.98 1152 2964 14188 714 335 -27
18:03:04.257315 697.99 1168 3080 14108 796 416 -11
18:03:04.261459 698.0 1424 2864 13696 -55 145 110
18:03:04.262257 698.01 1188 3024 13928 218 294 30
18:03:04.288209 698.02 1236 3124 14140 771 385 -61
18:03:04.290155 698.03 1232 3332 14336 1076 603 -119
18:03:04.290257 698.04 1100 3292 14500 982 709 -154
18:03:04.291366 698.05 1072 3132 13852 -323 33 45
18:03:04.292608 698.06 1240 3120 14164 18 112 -6
18:03:04.308682 698.07 1288 3116 14356 190 518 -54
18:03:04.322628 698.08 1240 3208 14148 257 182 -39
18:03:04.322762 698.09 1324 3056 14008 200 282 -20
18:03:04.378975 698.1 1248 3008 13800 226 185 33
18:03:04.386594 698.11 1276 3016 13772 499 221 29
18:03:04.386789 698.12 1256 3068 14096 771 293 7
18:03:04.386971 698.13 1124 3304 13748 562 273 103
18:03:04.387087 698.14 1272 3056 13716 444 156 34
18:03:04.387194 698.15 1400 2960 14428 1819 639 -129
18:03:04.387311 698.16 1072 3432 14700 3034 1005 -227
18:03:04.387414 698.17 1152 3628 13924 1213 248 -47
18:03:04.395194 698.18 1236 3436 14212 1236 603 -103
18:03:04.418969 698.19 1084 3488 13624 904 409 18
18:03:04.448720 698.2 1192 3416 13496 415 168 124
18:03:04.459993 698.21 1260 3304 13784 968 417 -35
18:03:04.460089 698.22 1216 3476 14200 1614 379 -84
18:03:04.460166 698.23 1180 3584 14292 1681 275 -66
18:03:04.460242 698.24 1096 3648 14240 1428 285 -66
18:03:04.480589 698.25 1080 3700 14212 1324 331 -22
18:03:04.494129 698.26 984 3804 14248 1208 348 -19
18:03:04.494918 698.27 1228 3780 14032 1042 380 -69
18:03:04.497150 698.28 1172 3668 14024 986 437 -34
18:03:04.517518 698.29 1168 3740 14000 896 406 -54
18:03:04.521955 698.3 1156 3696 13888 966 377 -40
18:03:04.530315 698.31 1172 3684 13856 1127 359 -130
18:03:04.585683 698.32 1308 3708 13860 1281 324 -93
18:03:04.588340 698.33 1216 3748 13852 1331 352 -101
18:03:04.589556 698.34 1268 3804 13900 1226 323 -115
18:03:04.590670 698.35 1116 3836 14120 1105 338 -77
18:03:04.591787 698.36 1132 3868 14040 1023 393 -82
18:03:04.600587 698.37 1108 3876 14188 900 383 -86
18:03:04.625647 698.38 1124 3900 13992 761 407 -54
18:03:04.643437 698.39 1020 3952 13952 733 371 -81
18:03:04.657989 698.4 1072 3912 14076 593 355 -68
18:03:04.658235 698.41 1000 3956 13968 583 371 -23
18:03:04.716915 698.42 1228 4052 13904 548 361 -46
18:03:04.725240 698.43 1112 4044 13872 564 420 -72
18:03:04.725377 698.44 1176 4040 13828 576 398 -45
18:03:04.725472 698.45 1092 4140 13960 611 437 -31
18:03:04.725563 698.46 1084 4144 14012 682 463 -67
18:03:04.725780 698.47 1064 4140 13844 687 443 -84
18:03:04.725998 698.48 1036 4192 13980 669 360 -83
18:03:04.726213 698.49 1048 4200 14188 847 747 -109
18:03:04.734875 698.5 948 4164 13600 362 419 -41
18:03:04.756821 698.51 1068 4092 13608 47 389 -32
18:03:04.758010 698.52 1180 4096 13828 638 504 -77
18:03:04.760599 698.53 1028 4200 13888 688 406 -95
18:03:04.810945 698.54 1004 4276 13760 428 340 -58
18:03:04.823032 698.55 1020 4220 13836 308 268 -17
18:03:04.823201 698.56 1068 4268 13864 246 213 -7
18:03:04.823415 698.57 1008 4200 13916 313 234 -37
18:03:04.823617 698.58 1008 4416 13908 320 234 -31
18:03:04.823818 698.59 1040 4252 13920 281 240 -40
18:03:04.830231 698.6 1072 4356 13916 271 306 -29
18:03:04.858672 698.61 1008 4336 13992 273 286 -59
18:03:04.859788 698.62 1084 4296 13972 258 285 -77
18:03:04.860978 698.63 988 4360 13908 189 288 -34
18:03:04.883199 698.64 980 4296 13960 142 298 -35
18:03:04.891378 698.65 1032 4240 13920 174 302 -12
18:03:04.921159 698.66 1040 4360 13932 267 344 -36
18:03:04.925488 698.67 1008 4328 13988 164 303 -36
18:03:04.925826 698.68 1036 4356 13776 54 279 3
18:03:04.926155 698.69 872 4324 13760 -3 274 -19
18:03:04.928271 698.7 1008 4296 13868 35 282 -35
18:03:04.953013 698.71 920 4312 13852 78 283 -17
18:03:04.959992 698.72 984 4324 13716 70 292 -37
18:03:04.978882 698.73 996 4268 13836 17 277 -25
18:03:05.020445 698.74 980 4276 13828 19 307 12
18:03:05.023288 698.75 1024 4352 13984 -7 310 2
18:03:05.024019 698.76 1108 4424 13716 11 352 -2
18:03:05.025157 698.77 1020 4444 13788 12 324 -7
18:03:05.026381 698.78 1004 4360 13820 4 294 13
18:03:05.039045 698.79 944 4392 13836 -68 304 -10
18:03:05.061642 698.8 1040 4412 13940 -61 278 20
18:03:05.061811 698.81 1072 4464 13776 -71 260 -1
18:03:05.061993 698.82 1016 4444 13884 -94 275 15
18:03:05.082991 698.83 976 4388 13920 -169 278 2
18:03:05.091659 698.84 924 4332 13860 -184 250 26
18:03:05.093811 698.85 1044 4352 13856 -174 255 -6
18:03:05.133748 698.86 1016 4352 14000 -205 233 -4
18:03:05.145922 698.87 904 4328 13880 -224 237 8
18:03:05.184485 698.88 972 4424 14004 -243 236 1
18:03:05.193816 698.89 948 4356 13944 -240 235 -4
18:03:05.193998 698.9 928 4404 13972 -312 229 -9
18:03:05.194152 698.91 928 4428 13868 -390 192 6
18:03:05.258112 698.92 1020 4376 13968 -436 190 0
18:03:05.263325 698.93 984 4468 13912 -510 192 22
18:03:05.263446 698.94 964 4328 13888 -581 187 25
18:03:05.278545 698.95 1012 4364 13920 -639 208 3
18:03:05.295945 698.96 900 4368 13988 -746 200 50
18:03:05.326415 698.97 960 4340 13836 -834 176 50
18:03:05.327536 698.98 1052 4252 13980 -945 141 58
18:03:05.329267 698.99 956 4352 14016 -1007 106 76
18:03:05.331267 699.0 988 4308 13908 -1124 80 99
18:03:05.332388 699.01 976 4240 14000 -1235 82 89
18:03:05.333971 699.02 980 4248 13828 -1379 62 133
18:03:05.335235 699.03 1056 4192 13940 -1427 87 121
18:03:05.361724 699.04 964 4220 13896 -1517 76 135
18:03:05.363244 699.05 948 4104 13996 -1556 53 130
18:03:05.363932 699.06 1048 4128 13872 -1615 19 109
18:03:05.365165 699.07 1056 3956 13916 -1573 11 171
18:03:05.369715 699.08 1028 3952 14072 -1508 62 165
18:03:05.384835 699.09 1048 3832 14080 -1488 71 119
18:03:05.392616 699.1 1068 3916 13940 -1657 16 184
18:03:05.392789 699.11 1036 3848 13952 -1728 7 170
18:03:05.446960 699.12 988 3740 13868 -1841 -68 179
18:03:05.460263 699.13 1008 3836 13868 -1947 -160 184
18:03:05.460391 699.14 1188 3644 13944 -1850 -67 138
18:03:05.460476 699.15 1040 3680 14188 -1407 99 103
18:03:05.460555 699.16 1084 3888 14248 -1428 123 89
18:03:05.460634 699.17 972 3756 14028 -1612 65 129
18:03:05.460753 699.18 988 3616 13960 -1648 -102 123
18:03:05.473825 699.19 1012 3568 13988 -1706 -117 175
18:03:05.493746 699.2 1120 3588 13984 -1616 -104 129
18:03:05.493879 699.21 1088 3524 14248 -1600 -32 155
18:03:05.546149 699.22 1072 3640 13824 -2464 -83 269
18:03:05.560143 699.23 1208 3444 13636 -2814 -398 255
18:03:05.560293 699.24 1336 3220 14616 -1592 14 58
18:03:05.560457 699.25 1124 3500 14152 -1057 -255 121
18:03:05.560689 699.26 1168 3312 13800 -2099 -703 225
18:03:05.560911 699.27 1416 3160 14232 -1475 -15 127
18:03:05.561129 699.28 1112 3292 13800 -2140 -509 278
18:03:05.571148 699.29 1204 3172 13696 -2419 -654 288
18:03:05.573196 699.3 1316 3032 13952 -1592 -211 171
18:03:05.594712 699.31 1312 3164 14488 -933 -33 82
18:03:05.594955 699.32 1220 3172 14380 -1124 -93 78
18:03:05.595240 699.33 1224 3100 14412 -1485 -170 141
18:03:05.603090 699.34 1124 3096 14292 -1600 -103 159
18:03:05.631027 699.35 1212 3200 14364 -1609 -77 178
18:03:05.632162 699.36 1128 3100 14228 -1828 -143 156
18:03:05.633276 699.37 1148 3012 14012 -1899 -150 186
18:03:05.651163 699.38 1332 3016 14072 -1889 -190 169
18:03:05.659035 699.39 1292 2820 13892 -1900 -205 146
18:03:05.662723 699.4 1340 2796 13804 -1734 -178 146
18:03:05.670628 699.41 1332 2780 14040 -1324 -74 60
18:03:05.688618 699.42 1332 2664 14284 -1014 27 37
18:03:05.697729 699.43 1268 2788 14248 -960 -10 49
18:03:05.718954 699.44 1356 2784 14352 -995 -51 54
18:03:05.755714 699.45 1376 2776 14392 -1049 13 62
18:03:05.763325 699.46 1280 2708 14132 -1182 -32 69
18:03:05.763564 699.47 1280 2660 14152 -1222 31 72
18:03:05.763852 699.48 1296 2608 14212 -1229 -23 42
18:03:05.764137 699.49 1304 2572 14164 -1280 -59 72
18:03:05.789313 699.5 1440 2640 14188 -1368 -40 44
18:03:05.796903 699.51 1404 2584 14100 -1381 -42 49
18:03:05.797036 699.52 1536 2612 14152 -1325 17 51
18:03:05.819181 699.53 1240 2552 14008 -1238 31 43
18:03:05.829958 699.54 1392 2496 14076 -1085 126 50
18:03:05.830102 699.55 1276 2580 14284 -917 94 15
18:03:05.830199 699.56 1320 2572 14384 -803 171 -11
18:03:05.831575 699.57 1436 2524 14408 -908 70 0
18:03:05.871064 699.58 1380 2488 14468 -637 312 -14
18:03:05.872148 699.59 1368 2536 14132 -1109 29 55
18:03:05.873596 699.6 1416 2392 13968 -1338 39 83
18:03:05.883429 699.61 1400 2300 14144 -1109 -47 26
18:03:05.898450 699.62 1344 2368 14196 -947 -27 0
18:03:05.905088 699.63 1484 2440 14344 -930 2 12
18:03:05.907739 699.64 1356 2328 14328 -1063 23 8
18:03:05.950615 699.65 1400 2340 14296 -1127 6 5
18:03:05.964788 699.66 1420 2368 14216 -1285 -77 -5
18:03:05.971279 699.67 1572 2284 14344 -1420 -102 17
18:03:05.972570 699.68 1416 2284 14388 -1356 -13 4
18:03:05.973465 699.69 1480 2256 14312 -1217 37 -40
18:03:05.976738 699.7 1400 2200 14132 -1212 71 -31
18:03:05.988470 699.71 1440 2176 14260 -1342 59 -13
18:03:05.996748 699.72 1320 2068 14152 -1334 55 33
18:03:06.000152 699.73 1384 2004 14188 -1313 -37 43
18:03:06.028869 699.74 1540 2052 14312 -1261 -22 39
18:03:06.031332 699.75 1520 2012 14332 -1121 -48 18
18:03:06.031424 699.76 1436 1968 14256 -1068 -48 -5
18:03:06.062149 699.77 1392 1944 14312 -982 31 22
18:03:06.093478 699.78 1404 2020 14260 -974 61 11
18:03:06.096867 699.79 1432 2032 14232 -891 24 3
18:03:06.098719 699.8 1524 1988 14272 -898 -8 10
18:03:06.099969 699.81 1528 1908 14328 -871 -2 17
18:03:06.101837 699.82 1472 2044 14160 -907 -20 53
18:03:06.105781 699.83 1488 2000 14232 -869 95 32
18:03:06.106426 699.84 1460 1988 14268 -839 80 34
18:03:06.120137 699.85 1552 1812 14264 -739 110 27
18:03:06.153887 699.86 1496 1880 14188 -738 105 32
18:03:06.162191 699.87 1500 1836 14252 -633 113 61
18:03:06.162345 699.88 1520 1792 14232 -535 120 28
18:03:06.162467 699.89 1564 1840 14240 -426 187 7
18:03:06.165130 699.9 1492 1816 14324 -379 169 14
18:03:06.191892 699.91 1540 1788 14212 -337 153 28
18:03:06.205131 699.92 1516 1880 14192 -193 191 16
18:03:06.206604 699.93 1508 1832 14092 -93 223 41
18:03:06.219906 699.94 1572 1716 14040 51 273 1
18:03:06.231318 699.95 1552 1724 14176 187 261 35
18:03:06.242568 699.96 1524 1876 14160 278 286 -19
18:03:06.264005 699.97 1512 1756 14128 424 313 -11
18:03:06.264176 699.98 1584 1848 14144 567 339 -21
18:03:06.264432 699.99 1564 1836 14184 651 360 -7
18:03:06.287931 700.0 1508 1940 14156 749 388 -19
18:03:06.306179 700.01 1284 1956 14252 873 419 -47
18:03:06.307508 700.02 1488 1980 14336 764 436 -35
18:03:06.308542 700.03 1524 1884 14160 740 459 -18
18:03:06.325321 700.04 1396 1972 14364 712 414 -17
18:03:06.331743 700.05 1416 1988 14440 666 427 -31
18:03:06.337691 700.06 1444 2064 14368 641 384 -18
18:03:06.365897 700.07 1428 1924 14212 565 346 -12
18:03:06.367079 700.08 1432 2064 14124 642 341 -9
18:03:06.368077 700.09 1472 1968 14240 682 404 -3
18:03:06.375598 700.1 1552 2076 14328 667 423 -29
18:03:06.399872 700.11 1440 2032 14112 762 429 -13
18:03:06.401447 700.12 1512 2176 14308 780 405 -43
18:03:06.426328 700.13 1456 2080 14216 757 353 3
18:03:06.432695 700.14 1468 2136 14104 752 297 6
18:03:06.432950 700.15 1464 2028 14140 933 367 -21
18:03:06.435222 700.16 1492 2308 14356 1326 535 -53
18:03:06.491983 700.17 1472 2296 14316 1529 622 -61
18:03:06.498715 700.18 1400 2320 14256 1495 607 -59
18:03:06.498808 700.19 1384 2348 14200 1431 464 -58
18:03:06.498886 700.2 1344 2336 13960 1396 341 -21
18:03:06.498953 700.21 1496 2292 14128 1593 356 -8
18:03:06.524088 700.22 1480 2348 14296 1876 591 -63
18:03:06.536894 700.23 1336 2560 14044 1377 619 7
18:03:06.537002 700.24 1400 2444 13620 613 334 31
18:03:06.540931 700.25 1556 2412 14652 2095 784 -152
18:03:06.561287 700.26 1460 2700 14456 2730 674 -153
18:03:06.572024 700.27 1232 2824 14000 1394 164 -60
18:03:06.572165 700.28 1564 2556 14508 1585 662 -102
18:03:06.589537 700.29 1236 2676 13940 1655 755 -128
18:03:06.600091 700.3 1300 2628 13660 402 -27 97
18:03:06.626141 700.31 1440 2536 13944 1091 476 -42
18:03:06.639175 700.32 1372 2740 14280 1836 577 -135
18:03:06.639314 700.33 1336 2932 14512 1803 526 -121
18:03:06.639610 700.34 1244 2840 14328 1607 467 -68
18:03:06.639955 700.35 1264 2996 14376 1442 493 -3
18:03:06.641093 700.36 1332 3104 14356 1338 545 -5
18:03:06.684065 700.37 1172 3096 14156 1185 441 4
18:03:06.703379 700.38 1248 3096 14160 1190 493 -11
18:03:06.703476 700.39 1208 3128 14068 1048 543 -57
18:03:06.703540 700.4 1368 3020 13928 1033 520 -6
18:03:06.754721 700.41 1268 3020 13768 1154 502 -34
18:03:06.765485 700.42 1344 2996 13944 1336 498 -72
18:03:06.765587 700.43 1404 2976 14172 1500 507 -77
18:03:06.765713 700.44 1272 3172 14296 1553 500 -101
18:03:06.765784 700.45 1268 3128 14412 1406 479 -119
18:03:06.765853 700.46 1324 3284 14232 1324 512 -50
18:03:06.765919 700.47 1196 3236 14124 1204 464 -82
18:03:06.765988 700.48 1308 3272 14164 1128 425 -64
18:03:06.772837 700.49 1240 3532 14092 973 429 -63
18:03:06.797621 700.5 1264 3308 13944 938 397 -50
18:03:06.800506 700.51 1196 3384 14060 940 375 -30
18:03:06.840768 700.52 1252 3404 14068 834 399 -73
18:03:06.841965 700.53 1216 3292 14020 906 421 -49
18:03:06.842963 700.54 1196 3456 14040 915 394 -15
18:03:06.846076 700.55 1152 3444 14048 1096 452 -28
18:03:06.870213 700.56 1028 3508 14180 1264 511 -79
18:03:06.870336 700.57 1204 3588 14076 1344 478 -88
18:03:06.871277 700.58 1224 3564 14168 1436 591 -119
18:03:06.898894 700.59 1100 3660 13992 1487 799 -128
18:03:06.904222 700.6 1132 3704 13908 881 509 -65
18:03:06.904464 700.61 1180 3628 14032 845 606 -87
18:03:06.966787 700.62 1120 3628 13916 838 383 -70
18:03:06.967873 700.63 1100 3740 13952 1051 447 -114
18:03:06.968994 700.64 1160 3704 14008 1148 388 -88
18:03:06.970242 700.65 1060 3768 14092 892 371 -61
18:03:06.974943 700.66 1060 3644 14052 816 342 -35
18:03:06.978577 700.67 1160 3796 14148 856 278 -53
18:03:06.981330 700.68 1164 3848 13944 771 275 -63
18:03:07.009033 700.69 1152 3836 13972 835 374 -87
18:03:07.009300 700.7 1096 3888 14024 896 455 -76
18:03:07.047315 700.71 1072 3836 13960 924 402 -95
18:03:07.055371 700.72 1208 3920 14140 847 421 -52
18:03:07.058122 700.73 1272 3864 14020 702 435 -55
18:03:07.059508 700.74 1120 3956 13944 742 435 -90
18:03:07.060768 700.75 1168 3972 13980 798 441 -50
18:03:07.063122 700.76 988 3880 13948 639 401 -30
18:03:07.083984 700.77 1104 3968 13980 562 331 -25
18:03:07.084176 700.78 1120 4004 13972 609 406 -44
18:03:07.107556 700.79 1120 3968 13880 613 421 -86
18:03:07.117087 700.8 1044 4088 14036 650 442 -67
18:03:07.117209 700.81 1080 4020 13908 615 360 -59
18:03:07.173451 700.82 1148 4060 13940 526 363 -49
18:03:07.198152 700.83 1072 4108 13932 496 351 -34
18:03:07.218775 700.84 952 4156 13984 508 363 -40
18:03:07.218950 700.85 1056 4200 13908 483 356 -22
18:03:07.219060 700.86 948 4164 13972 446 365 -46
18:03:07.219321 700.87 1052 4192 13916 449 337 -28
18:03:07.230869 700.88 1028 4120 13984 429 330 -43
18:03:07.291412 700.89 1040 4152 13808 425 384 -54
18:03:07.341828 700.9 976 4116 13972 434 369 -34
18:03:07.350923 700.91 928 4220 13816 400 344 -43
18:03:07.351256 700.92 1000 4224 13888 296 360 -28
18:03:07.351527 700.93 972 4256 13912 321 353 -26
18:03:07.351786 700.94 1020 4152 13964 328 333 -32
18:03:07.404942 700.95 1104 4284 13788 339 302 -41
18:03:07.418471 700.96 956 4228 13896 293 334 -65
18:03:07.418572 700.97 1044 4184 13860 318 342 -51
18:03:07.418650 700.98 924 4272 13860 285 360 -57
18:03:07.418724 700.99 928 4284 13808 243 332 -55
18:03:07.418797 701.0 1012 4328 14024 180 295 -44
18:03:07.423607 701.01 908 4272 13912 176 301 -20
18:03:07.427862 701.02 1020 4252 13820 150 312 -35
18:03:07.429396 701.03 1036 4336 13840 137 318 -15
18:03:07.431248 701.04 976 4356 13980 89 306 -16
18:03:07.433393 701.05 988 4344 13888 76 294 -23
18:03:07.460668 701.06 976 4324 13980 94 331 3
18:03:07.460775 701.07 1008 4404 13908 75 294 -18
18:03:07.476921 701.08 980 4360 13936 61 293 -33
18:03:07.488927 701.09 1052 4396 13928 51 326 -43
18:03:07.489049 701.1 1052 4408 13824 56 334 -19
18:03:07.515185 701.11 996 4316 13936 16 327 -49
18:03:07.522313 701.12 1008 4328 14028 31 355 -31
18:03:07.522450 701.13 1104 4356 13848 11 339 -10
18:03:07.557873 701.14 968 4364 13844 -49 312 -6
18:03:07.559145 701.15 896 4404 13872 -127 264 23
18:03:07.560209 701.16 928 4300 13716 -248 193 51
18:03:07.562106 701.17 948 4332 13696 -305 189 5
18:03:07.562797 701.18 956 4296 13872 -255 243 4
18:03:07.568979 701.19 1080 4388 14028 -116 384 -27
18:03:07.619887 701.2 876 4480 14004 -143 381 -29
18:03:07.630698 701.21 852 4376 13972 -268 319 -36
18:03:07.630939 701.22 832 4492 13788 -417 228 -6
18:03:07.631280 701.23 972 4260 13816 -472 150 -10
18:03:07.631499 701.24 988 4328 13948 -380 139 24
18:03:07.631777 701.25 840 4312 13940 -479 90 80
18:03:07.632882 701.26 896 4292 13428 -1448 -34 189
18:03:07.634016 701.27 1224 4144 13804 -1263 93 111
18:03:07.666633 701.28 1112 4268 14528 -154 442 -13
18:03:07.700381 701.29 872 4576 14248 -469 77 29
18:03:07.709459 701.3 920 4392 13720 -1173 -159 138
18:03:07.709598 701.31 948 4244 13964 -1135 93 114
18:03:07.709815 701.32 844 4092 13564 -1668 -202 211
18:03:07.710013 701.33 892 3936 13592 -1663 -277 227
18:03:07.733295 701.34 1092 4040 13924 -1145 -126 165
18:03:07.742890 701.35 988 4144 14264 -1009 -135 103
18:03:07.743014 701.36 1140 4252 14188 -1166 -322 128
18:03:07.743176 701.37 1100 4244 14188 -1391 -284 179
18:03:07.760981 701.38 944 4168 14084 -1637 -305 228
18:03:07.771000 701.39 1004 4164 13976 -1645 -294 250
18:03:07.771186 701.4 944 4080 14080 -1598 -190 249
18:03:07.771331 701.41 1036 3992 13980 -1696 -34 230
18:03:07.815103 701.42 940 3968 13756 -1756 -6 207
18:03:07.816988 701.43 1072 3876 14028 -1845 -9 186
18:03:07.839332 701.44 1084 3740 13828 -1674 -39 179
18:03:07.839497 701.45 1116 3776 13924 -1512 6 180
18:03:07.839700 701.46 1068 3796 13992 -1406 -3 180
18:03:07.839872 701.47 1180 3724 14152 -1394 -2 134
18:03:07.847499 701.48 1060 3664 14180 -1440 -23 156
18:03:07.849066 701.49 1044 3664 14124 -1520 10 161
18:03:07.891751 701.5 1024 3688 14136 -1642 118 122
18:03:07.904378 701.51 964 3632 14116 -1807 64 149
18:03:07.904584 701.52 1052 3620 14160 -1950 2 160
18:03:07.910803 701.53 1176 3580 14004 -2024 -85 153
18:03:07.912049 701.54 1164 3572 14044 -2135 -140 203
18:03:07.913399 701.55 1176 3536 13944 -2079 -114 197
18:03:07.944430 701.56 1192 3432 14152 -1960 -131 193
18:03:07.974370 701.57 1120 3380 14088 -1888 -93 151
18:03:07.975243 701.58 1160 3388 14204 -1786 -32 149
18:03:07.978363 701.59 1116 3288 14232 -1642 36 133
18:03:07.979609 701.6 1080 3368 14084 -1475 12 76
18:03:08.006775 701.61 1232 3344 14152 -1529 -70 104
18:03:08.016280 701.62 1184 3148 14480 -1298 239 56
18:03:08.033542 701.63 1052 3296 14244 -1512 82 130
18:03:08.050154 701.64 1188 3128 14024 -2056 -148 150
18:03:08.052436 701.65 1216 3004 13940 -1913 -166 114
18:03:08.079997 701.66 1228 3172 14248 -1320 -62 28
18:03:08.080222 701.67 1260 3096 14100 -1354 -197 93
18:03:08.080786 701.68 1196 3044 14148 -1530 -99 86
18:03:08.080945 701.69 1156 3036 14156 -1512 -109 91
18:03:08.081242 701.7 1256 3068 14224 -1483 -83 72
18:03:08.081559 701.71 1108 3020 14220 -1527 -144 66
18:03:08.081805 701.72 1212 2996 14188 -1596 -68 56
18:03:08.101030 701.73 1288 2960 14316 -1537 -25 48
18:03:08.128527 701.74 1264 2876 14248 -1494 -47 51
18:03:08.129685 701.75 1236 2852 14068 -1573 -44 60
18:03:08.130836 701.76 1204 2912 14084 -1611 -38 59
18:03:08.151147 701.77 1156 2796 14276 -1677 -2 60
18:03:08.158078 701.78 1252 2692 14228 -1739 -80 47
18:03:08.158216 701.79 1300 2596 14132 -1681 -67 71
18:03:08.160396 701.8 1304 2648 14088 -1560 -110 42
18:03:08.184999 701.81 1320 2552 14172 -1460 -137 34
18:03:08.190634 701.82 1288 2580 14124 -1438 -134 40
18:03:08.198890 701.83 1324 2568 14144 -1441 -43 57
18:03:08.221123 701.84 1276 2608 14224 -1223 -8 22
18:03:08.250949 701.85 1344 2532 14088 -1333 -15 44
18:03:08.260366 701.86 1272 2480 14208 -1371 -21 50
18:03:08.260468 701.87 1300 2536 14148 -1349 -59 64
18:03:08.260533 701.88 1300 2424 14240 -1435 -18 40
18:03:08.266000 701.89 1420 2452 14320 -1391 4 65
18:03:08.286995 701.9 1432 2360 14248 -1364 -24 20
18:03:08.296019 701.91 1408 2348 14252 -1282 -18 36
18:03:08.296266 701.92 1464 2340 14076 -1294 22 37
18:03:08.305114 701.93 1356 2348 14332 -1312 8 33
18:03:08.330739 701.94 1372 2276 14416 -1235 27 37
18:03:08.330904 701.95 1408 2340 14252 -1272 9 34
18:03:08.376564 701.96 1364 2260 14224 -1282 68 12
18:03:08.394322 701.97 1400 2236 14320 -1301 61 5
18:03:08.394732 701.98 1392 2176 14228 -1544 -34 25
18:03:08.395066 701.99 1416 2116 14484 -1468 -93 -6
18:03:08.395196 702.0 1440 2032 14184 -1061 104 18
18:03:08.395326 702.01 1480 2244 14152 -1204 -58 74
18:03:08.402571 702.02 1432 2056 14212 -1267 -27 43
18:03:08.404209 702.03 1384 1996 14248 -1164 -54 27
18:03:08.483384 702.04 1488 2096 14268 -1109 -21 17
18:03:08.491318 702.05 1524 2036 14444 -1048 22 18
18:03:08.491710 702.06 1508 2032 14180 -1086 79 -11
18:03:08.492113 702.07 1404 2000 14356 -1058 38 -2
18:03:08.492515 702.08 1440 1864 14220 -1018 14 2
18:03:08.492908 702.09 1408 1912 14180 -1004 36 9
18:03:08.493301 702.1 1316 1852 14292 -948 40 29
18:03:08.493695 702.11 1448 1920 14312 -840 39 24
18:03:08.497812 702.12 1456 1844 14224 -804 25 42
18:03:08.526237 702.13 1436 1764 14316 -762 24 52
18:03:08.527478 702.14 1536 1852 14276 -674 76 12
18:03:08.528201 702.15 1560 1736 14240 -594 109 31
18:03:08.551464 702.16 1568 1796 14292 -496 144 33
18:03:08.590544 702.17 1612 1880 14348 -396 185 28
18:03:08.593658 702.18 1664 1848 14248 -371 183 21
18:03:08.596054 702.19 1456 1828 14164 -341 81 39
18:03:08.597070 702.2 1472 1728 14124 -304 62 65
18:03:08.598473 702.21 1556 1708 14120 -159 135 53
18:03:08.601719 702.22 1512 1852 14416 213 282 20
18:03:08.604932 702.23 1516 1872 14476 487 438 -36
18:03:08.624913 702.24 1616 1812 14400 431 410 -9
18:03:08.692151 702.25 1356 1796 14340 295 287 -11
18:03:08.693713 702.26 1428 1804 14192 264 169 44
18:03:08.694818 702.27 1468 1780 14076 454 244 -17
18:03:08.697240 702.28 1552 1908 14284 596 419 -35
18:03:08.702637 702.29 1308 1976 14328 377 475 2
18:03:08.704691 702.3 1332 2016 13672 -541 241 75
18:03:08.707040 702.31 1668 1724 14620 382 503 -8
18:03:08.726879 702.32 1552 1936 14648 1281 612 -97
18:03:08.727235 702.33 1328 2040 14084 755 39 -48
18:03:08.727584 702.34 1568 1788 14044 208 -90 38
18:03:08.739149 702.35 1524 1888 14600 1069 592 -77
18:03:08.767760 702.36 1224 2000 13768 183 -13 50
18:03:08.768922 702.37 1576 1800 13904 152 84 118
18:03:08.769923 702.38 1580 1956 14292 884 542 10
18:03:08.819476 702.39 1500 2076 14764 1202 641 -70
18:03:08.826574 702.4 1444 2160 14720 1111 549 -80
18:03:08.826732 702.41 1324 2300 14408 661 370 -3
18:03:08.826875 702.42 1280 2132 14296 390 354 34
18:03:08.826998 702.43 1476 2132 14336 437 241 74
18:03:08.850274 702.44 1368 2092 14396 417 215 94
18:03:08.860337 702.45 1400 2036 14340 498 251 40
18:03:08.860456 702.46 1512 2104 14156 505 302 33
18:03:08.860547 702.47 1440 2100 13880 581 364 36
18:03:08.915748 702.48 1464 2092 14040 952 388 4
18:03:08.926739 702.49 1408 2096 14152 1436 442 -2
18:03:08.926975 702.5 1452 2020 14360 1660 474 -43
18:03:08.927230 702.51 1416 2224 14244 1774 515 -50
18:03:08.927467 702.52 1444 2320 14464 1658 544 -59
18:03:08.927696 702.53 1380 2368 14440 1488 556 -51
18:03:08.927918 702.54 1388 2472 14348 1295 532 -89
18:03:08.932791 702.55 1356 2476 14348 1096 524 -78
18:03:08.956914 702.56 1408 2384 14148 935 452 -44
18:03:09.028528 702.57 1292 2496 14012 920 403 -23
18:03:09.029736 702.58 1268 2532 14140 950 422 -48
18:03:09.030808 702.59 1344 2492 14188 1039 469 -60
18:03:09.031881 702.6 1292 2560 14232 1007 488 -56
18:03:09.033006 702.61 1228 2544 14096 1160 488 -42
18:03:09.036291 702.62 1292 2648 14176 1312 490 -88
18:03:09.061853 702.63 1368 2684 14348 1413 526 -54
18:03:09.062746 702.64 1356 2676 14312 1401 455 -64
18:03:09.064059 702.65 1312 2704 14400 1665 780 -100
18:03:09.066198 702.66 1204 2656 13888 1188 490 -11
18:03:09.083375 702.67 1324 2732 13912 1132 533 -57
18:03:09.151308 702.68 1228 2756 14096 1702 576 -111
18:03:09.159821 702.69 1188 2796 13972 1525 376 -97
18:03:09.159925 702.7 1292 2820 14164 1623 510 -96
18:03:09.159996 702.71 1256 2944 14188 1804 609 -126
18:03:09.160064 702.72 1260 2936 14316 1602 514 -110
18:03:09.160130 702.73 1212 3008 14096 1441 443 -74
18:03:09.183171 702.74 1160 3088 14220 1231 352 -77
18:03:09.195082 702.75 1300 3076 14068 1222 359 -56
18:03:09.195330 702.76 1260 3160 14204 1267 387 -96
18:03:09.195532 702.77 1240 3164 14196 1273 456 -82
18:03:09.195717 702.78 1308 3128 14268 1355 489 -108
18:03:09.201095 702.79 1240 3164 14316 1217 534 -66
18:03:09.202381 702.8 1176 3204 14124 1059 489 -89
18:03:09.203982 702.81 1172 3168 14144 1133 508 -49
18:03:09.251458 702.82 1220 3204 13988 1115 530 -79
18:03:09.261018 702.83 1196 3204 14056 1075 460 -77
18:03:09.261382 702.84 1144 3260 14112 919 491 -52
18:03:09.261709 702.85 1244 3204 13972 1088 514 -82
18:03:09.262021 702.86 1188 3320 14104 1156 554 -81
18:03:09.276358 702.87 1212 3392 14144 1184 556 -80
18:03:09.294336 702.88 1192 3364 14064 1098 504 -91
18:03:09.294521 702.89 1228 3484 14048 998 470 -81
18:03:09.352671 702.9 1112 3496 14080 942 470 -39
18:03:09.361866 702.91 1160 3460 14064 875 457 -17
18:03:09.361998 702.92 1188 3596 14128 867 485 -57
18:03:09.362105 702.93 1072 3500 14048 872 442 -62
18:03:09.362210 702.94 1152 3572 13868 872 491 -73
18:03:09.362316 702.95 1080 3616 13916 885 426 -46
18:03:09.362415 702.96 1172 3576 14164 923 454 -41
18:03:09.362517 702.97 1136 3664 14012 930 516 -43
18:03:09.367565 702.98 1080 3580 14200 936 484 -51
18:03:09.393606 702.99 1048 3616 14160 884 476 -70
18:03:09.396902 703.0 1168 3668 14060 927 406 -35
18:03:09.464201 703.01 1192 3680 13952 859 448 -57
18:03:09.465091 703.02 1124 3668 14044 941 462 -75
18:03:09.466432 703.03 1104 3780 13972 929 451 -65
18:03:09.467608 703.04 1064 3800 14060 946 477 -35
18:03:09.470738 703.05 1052 3752 13984 914 519 -84
18:03:09.490467 703.06 1184 3788 13856 925 483 -50
18:03:09.498756 703.07 1088 3800 14024 850 449 -98
18:03:09.498912 703.08 1064 3844 13984 830 397 -81
18:03:09.499022 703.09 1064 3944 14072 785 413 -46
18:03:09.534448 703.1 1012 4000 13960 783 460 -69
18:03:09.561574 703.11 1064 3956 14040 740 402 -71
18:03:09.565547 703.12 964 4004 13988 687 416 -70
18:03:09.565661 703.13 1064 3948 14080 681 388 -51
18:03:09.565797 703.14 1008 3956 13964 665 419 -58
18:03:09.567605 703.15 1044 3952 14016 666 384 -66
18:03:09.572555 703.16 1096 4080 13936 650 424 -69
18:03:09.574252 703.17 1044 4040 14024 695 521 -83
18:03:09.576370 703.18 1064 4064 13944 643 419 -70
18:03:09.614863 703.19 1008 4104 14000 536 422 -30
18:03:09.640216 703.2 924 4168 13744 422 368 -25
18:03:09.640490 703.21 1072 4104 13788 326 303 -25
18:03:09.640943 703.22 1004 4072 13868 491 387 -41
18:03:09.641378 703.23 1048 4084 14088 705 524 -109
18:03:09.641858 703.24 1000 4180 14176 774 542 -105
18:03:09.678697 703.25 1032 4216 13976 638 468 -71
18:03:09.694827 703.26 888 4116 13980 362 389 -58
18:03:09.695263 703.27 936 4268 13904 277 345 -55
18:03:09.695779 703.28 1072 4100 13968 375 318 -39
18:03:09.696247 703.29 900 4256 14048 184 261 24
18:03:09.743514 703.3 740 4096 13392 -594 162 90
18:03:09.779704 703.31 1148 4024 13896 -271 292 3
18:03:09.786532 703.32 1200 4388 14660 1020 685 -157
18:03:09.786775 703.33 844 4408 14032 678 264 -51
18:03:09.787050 703.34 872 4260 13848 -145 1 13
18:03:09.787128 703.35 964 4164 13936 -27 285 28
18:03:09.794222 703.36 776 4176 13440 -561 68 98
18:03:09.816922 703.37 996 3976 13500 -356 5 126
18:03:09.817218 703.38 1052 4116 13636 132 171 25
18:03:09.817432 703.39 1060 4244 14036 324 32 5
18:03:09.839332 703.4 1060 4340 14068 423 -110 15
18:03:09.850293 703.41 844 4296 14084 308 6 27
18:03:09.850437 703.42 824 4352 13984 228 40 51
18:03:09.885859 703.43 824 4296 13936 150 80 65
18:03:09.919299 703.44 952 4328 13960 104 276 2
18:03:09.921386 703.45 1032 4412 13880 118 329 -15
18:03:09.922515 703.46 972 4360 13876 64 354 -56
18:03:09.924137 703.47 1040 4304 13760 136 332 -37
18:03:09.925375 703.48 1000 4272 13900 378 333 -3
18:03:09.992727 703.49 988 4280 13988 419 325 -22
18:03:09.993660 703.5 900 4260 13900 456 312 -30
18:03:09.996059 703.51 1060 4360 14040 395 234 -32
18:03:09.997736 703.52 1004 4340 13736 211 272 -19
18:03:10.017315 703.53 1008 4336 13996 143 314 -20
18:03:10.026602 703.54 892 4352 14020 25 293 -19
18:03:10.026788 703.55 940 4288 13952 -47 305 -24
18:03:10.026934 703.56 900 4400 13916 -50 309 -10
18:03:10.027094 703.57 912 4356 13800 -111 303 -30
18:03:10.139056 703.58 976 4396 13844 -155 323 -34
18:03:10.140134 703.59 888 4376 13836 -128 258 15
18:03:10.141577 703.6 940 4376 13932 -58 290 -7
18:03:10.143008 703.61 896 4380 13952 37 342 2
18:03:10.144371 703.62 1052 4288 13972 89 321 -39
18:03:10.146339 703.63 944 4452 13752 90 295 -37
18:03:10.199916 703.64 936 4480 13912 41 283 -25
18:03:10.204348 703.65 988 4404 14044 198 583 -83
18:03:10.204530 703.66 860 4456 13528 -357 229 16
18:03:10.204696 703.67 1008 4308 13680 -416 302 -9
18:03:10.205437 703.68 888 4384 13900 -137 136 30
18:03:10.206682 703.69 1032 4456 13956 -182 118 26
18:03:10.333296 703.7 880 4360 13900 -215 202 23
18:03:10.337241 703.71 956 4456 13992 -195 217 26
18:03:10.337546 703.72 884 4440 13928 -202 244 6
18:03:10.337864 703.73 932 4408 13900 -248 243 19
18:03:10.338094 703.74 912 4420 13828 -285 210 9
18:03:10.356523 703.75 880 4324 13752 -305 166 65
18:03:10.371511 703.76 936 4324 13932 -283 194 17
18:03:10.371773 703.77 920 4328 13968 -196 214 16
18:03:10.372138 703.78 888 4340 13932 -378 169 3
18:03:10.372483 703.79 952 4360 13784 -542 160 51
18:03:10.372830 703.8 944 4236 14000 -874 82 96
18:03:10.424858 703.81 884 4264 13940 -900 117 97
18:03:10.433431 703.82 896 4204 13868 -993 84 99
18:03:10.433819 703.83 912 4288 13964 -1065 90 119
18:03:10.434169 703.84 968 4176 13952 -1044 138 102
18:03:10.434512 703.85 868 4244 13884 -1065 130 82
18:03:10.434834 703.86 848 4208 13820 -1218 73 111
18:03:10.455821 703.87 920 4092 13828 -1408 50 110
18:03:10.470946 703.88 960 3984 13984 -1494 47 116
18:03:10.471129 703.89 996 3988 13880 -1474 47 157
18:03:10.471243 703.9 984 4132 13972 -1446 55 119
18:03:10.471354 703.91 992 4076 13832 -1466 53 103
18:03:10.526738 703.92 1112 4024 13972 -1557 91 96
18:03:10.535297 703.93 1024 3916 13868 -1576 55 108
18:03:10.540716 703.94 1028 4008 13840 -1547 -32 137
18:03:10.543348 703.95 1064 3904 13896 -1538 -37 141
18:03:10.574128 703.96 984 3864 13992 -1542 -38 141
18:03:10.575176 703.97 1036 3808 13936 -1423 -74 150
18:03:10.576416 703.98 1040 3808 14124 -1358 -19 146
18:03:10.577948 703.99 1044 3848 14088 -1445 -1 144
18:03:10.580282 704.0 1052 3704 14072 -1565 -30 107
18:03:10.581910 704.01 1052 3700 14064 -1603 -37 131
18:03:10.634008 704.02 1056 3664 14104 -1603 -54 132
18:03:10.637859 704.03 1096 3644 14224 -1633 -20 149
18:03:10.638111 704.04 1028 3628 14136 -1579 -63 163
18:03:10.638342 704.05 976 3552 13980 -1565 -29 156
18:03:10.638574 704.06 1072 3524 14076 -1611 -4 112
18:03:10.642974 704.07 1076 3572 14016 -1783 -95 135
18:03:10.649478 704.08 960 3432 14204 -1797 -105 137
18:03:10.671916 704.09 1020 3340 14152 -1711 -121 117
18:03:10.672069 704.1 1104 3444 14156 -1660 -106 134
18:03:10.672169 704.11 1116 3208 14268 -1587 -31 118
18:03:10.691180 704.12 1096 3324 14092 -1676 -101 104
18:03:10.703470 704.13 1216 3260 14056 -1758 -115 125
18:03:10.746980 704.14 1096 3188 14112 -1941 -198 133
18:03:10.747869 704.15 1172 3204 13988 -2057 -262 148
18:03:10.749692 704.16 1160 3084 14004 -1961 -268 146
18:03:10.775696 704.17 1152 3168 14188 -1629 -101 96
18:03:10.775803 704.18 1224 3060 14184 -1388 -10 90
18:03:10.775867 704.19 1104 3156 14256 -1458 -26 78
18:03:10.775927 704.2 1136 3112 14160 -1693 -189 118
18:03:10.781469 704.21 1116 2988 14024 -1809 -260 133
18:03:10.809204 704.22 1252 2948 14280 -1549 -194 89
18:03:10.815830 704.23 1228 2944 14268 -1516 -134 119
18:03:10.847119 704.24 1120 3068 13868 -2282 -71 154
18:03:10.847804 704.25 1296 2736 13716 -2718 -497 202
18:03:10.850293 704.26 1552 2736 14712 -1041 166 10
18:03:10.874271 704.27 1104 2908 13952 -949 -359 49
18:03:10.874391 704.28 1392 2668 14196 -1898 -605 173
18:03:10.874469 704.29 1312 2624 14408 -1296 80 37
18:03:10.874542 704.3 1128 2656 13532 -2000 -526 214
18:03:10.874615 704.31 1432 2488 13840 -1889 -361 144
18:03:10.875970 704.32 1480 2488 14228 -951 105 44
18:03:10.900516 704.33 1364 2732 14532 -791 107 4
18:03:10.906986 704.34 1184 2736 14520 -1036 -25 31
18:03:10.973332 704.35 1256 2788 14316 -1275 -79 84
18:03:10.975581 704.36 1292 2548 14332 -1452 -28 120
18:03:10.975752 704.37 1180 2584 14332 -1588 -64 131
18:03:10.975849 704.38 1304 2452 14252 -1808 -210 150
18:03:10.977683 704.39 1340 2500 14212 -1876 -158 97
18:03:10.979137 704.4 1264 2268 14024 -1901 -112 76
18:03:11.003976 704.41 1388 2208 13892 -1695 -112 58
18:03:11.008095 704.42 1376 2136 14100 -1439 -101 69
18:03:11.008345 704.43 1364 2220 14088 -987 -44 28
18:03:11.008578 704.44 1368 2196 14328 -808 -20 20
18:03:11.026261 704.45 1364 2176 14360 -861 -8 33
18:03:11.040304 704.46 1352 2292 14348 -1009 -41 49
18:03:11.040487 704.47 1316 2164 14296 -1056 23 33
18:03:11.040685 704.48 1464 2184 14400 -1141 6 27
18:03:11.097630 704.49 1412 2124 14312 -1185 -55 67
18:03:11.106475 704.5 1432 2276 14340 -1242 -50 45
18:03:11.106826 704.51 1496 2048 14344 -1246 12 -3
18:03:11.107041 704.52 1444 2076 14304 -1350 28 32
18:03:11.107139 704.53 1480 2148 14188 -1351 -34 9
18:03:11.125768 704.54 1384 2036 14136 -1114 33 33
18:03:11.144020 704.55 1424 1980 14152 -1003 44 -7
18:03:11.144155 704.56 1424 2032 14376 -833 83 37
18:03:11.144257 704.57 1328 2108 14176 -708 137 28
18:03:11.144354 704.58 1380 1972 14448 -759 58 31
18:03:11.180929 704.59 1396 1984 14476 -532 286 16
18:03:11.182143 704.6 1460 2016 14068 -937 41 53
18:03:11.184047 704.61 1404 2024 14096 -1153 -36 82
18:03:11.205541 704.62 1500 1828 14180 -783 99 13
18:03:11.205786 704.63 1396 1952 14280 -734 -52 10
18:03:11.205983 704.64 1516 1888 14376 -601 44 24
18:03:11.213026 704.65 1584 1856 14172 -604 30 19
18:03:11.237479 704.66 1412 1880 14284 -568 50 24
18:03:11.239039 704.67 1432 1892 14200 -706 -53 11
18:03:11.266137 704.68 1536 1916 14272 -719 33 -11
18:03:11.274371 704.69 1520 1924 14516 -634 81 -10
18:03:11.274510 704.7 1516 1844 14272 -614 127 -20
18:03:11.302751 704.71 1516 1844 14308 -552 149 -22
18:03:11.309560 704.72 1496 1828 14320 -553 162 2
18:03:11.309791 704.73 1452 1940 14340 -555 168 31
18:03:11.333684 704.74 1492 1664 14264 -612 65 23
18:03:11.345443 704.75 1620 1716 14404 -533 134 23
18:03:11.345743 704.76 1528 1700 14296 -337 184 10
18:03:11.366615 704.77 1548 1660 14252 -373 90 19
18:03:11.377364 704.78 1420 1672 14196 -308 112 43
18:03:11.377520 704.79 1504 1812 14300 -160 183 2
18:03:11.401123 704.8 1524 1676 14240 -13 162 -2
18:03:11.413209 704.81 1516 1724 14364 64 215 23
18:03:11.413365 704.82 1544 1876 14272 86 281 -17
18:03:11.413598 704.83 1440 1720 14084 44 299 10
18:03:11.417510 704.84 1492 1736 14116 24 250 39
18:03:11.419395 704.85 1552 1800 14344 141 324 12
18:03:11.447503 704.86 1496 1872 14364 232 295 19
18:03:11.464379 704.87 1432 1808 14172 279 292 5
18:03:11.476121 704.88 1564 1864 14312 350 328 -14
18:03:11.481378 704.89 1532 1804 14252 464 367 -2
18:03:11.482904 704.9 1452 1888 14432 512 366 -4
18:03:11.483927 704.91 1412 1792 14380 645 438 -43
18:03:11.528428 704.92 1512 1856 14228 663 447 -22
18:03:11.549114 704.93 1444 1824 14176 617 419 -40
18:03:11.550068 704.94 1464 1836 14292 700 402 -38
18:03:11.550895 704.95 1396 1912 14296 719 429 -61
18:03:11.551284 704.96 1540 1936 14272 787 404 -15
18:03:11.551468 704.97 1400 1924 14248 798 429 -23
18:03:11.551860 704.98 1436 1956 14352 876 419 -34
18:03:11.574764 704.99 1412 1956 14248 847 350 -33
18:03:11.578076 705.0 1428 2020 14160 997 381 -24
18:03:11.596781 705.01 1496 2048 14188 1150 416 -46
18:03:11.616288 705.02 1432 2120 14264 1163 417 -53
18:03:11.623902 705.03 1320 2016 14244 1275 465 -47
18:03:11.624006 705.04 1348 2024 14076 1395 484 -59
18:03:11.639342 705.05 1408 2092 14316 1496 483 -57
18:03:11.650286 705.06 1384 2172 14228 1656 578 -72
18:03:11.672319 705.07 1476 2228 14200 1778 593 -87
18:03:11.704035 705.08 1424 2204 14360 1991 699 -107
18:03:11.716350 705.09 1392 2380 14248 1962 786 -109
18:03:11.725800 705.1 1340 2500 14272 1702 648 -110
18:03:11.726390 705.11 1340 2472 14140 1460 494 -65
18:03:11.727146 705.12 1312 2468 14040 1453 476 -52
18:03:11.739077 705.13 1416 2524 14272 1749 606 -97
18:03:11.747769 705.14 1404 2588 14384 1985 779 -141
18:03:11.747981 705.15 1324 2688 14312 1946 771 -171
18:03:11.764627 705.16 1256 2772 14284 1752 729 -110
18:03:11.776581 705.17 1292 2660 14104 1488 551 -68
18:03:11.776738 705.18 1420 2608 14180 1464 491 -59
18:03:11.776945 705.19 1276 2672 14204 1710 513 -93
18:03:11.797722 705.2 1188 2872 14204 1137 645 26
18:03:11.810349 705.21 1156 2864 13688 371 343 67
18:03:11.818667 705.22 1552 2604 14196 978 587 -62
18:03:11.820684 705.23 1428 2916 14664 2502 809 -199
18:03:11.843978 705.24 1112 3028 14028 1657 319 -43
18:03:11.844161 705.25 1408 2968 14376 957 347 -58
18:03:11.852813 705.26 1224 2876 14196 1469 827 -107
18:03:11.854304 705.27 1088 3044 13540 346 94 73
18:03:11.874752 705.28 1308 2816 13672 293 223 63
18:03:11.887707 705.29 1272 2876 14020 1389 537 -65
18:03:11.893587 705.3 1276 3072 14376 1757 457 -114
18:03:11.894267 705.31 1284 3160 14500 1714 426 -89
18:03:11.913337 705.32 1156 3168 14232 1523 425 -12
18:03:11.913465 705.33 1080 3224 14176 1584 524 -26
18:03:11.938587 705.34 1064 3264 14236 1463 527 -35
18:03:11.940153 705.35 1296 3412 14192 1311 479 -53
18:03:11.942160 705.36 1184 3404 14124 1062 564 -18
18:03:11.947816 705.37 1080 3348 14032 934 680 -38
18:03:11.972751 705.38 1204 3276 13832 954 669 -61
18:03:11.974643 705.39 1192 3252 14048 1108 558 -64
18:03:11.998921 705.4 1224 3324 14116 1249 491 -92
18:03:12.000351 705.41 1292 3444 14100 1320 474 -98
18:03:12.014927 705.42 1176 3356 14180 1321 522 -108
18:03:12.023126 705.43 1156 3456 14056 1183 475 -87
18:03:12.038463 705.44 1140 3476 14016 1065 462 -41
18:03:12.053172 705.45 1176 3540 14204 985 463 -93
18:03:12.053348 705.46 1080 3564 14136 929 504 -94
18:03:12.070084 705.47 1120 3520 14084 807 422 -40
18:03:12.078280 705.48 1148 3632 14032 792 348 -40
18:03:12.091618 705.49 1188 3644 13944 722 420 -50
18:03:12.104557 705.5 1168 3708 13936 764 422 -39
18:03:12.106684 705.51 1104 3648 13932 718 394 -67
18:03:12.127170 705.52 1016 3700 14072 828 428 -55
18:03:12.127510 705.53 1040 3760 14000 918 444 -77
18:03:12.127793 705.54 1040 3760 14104 1005 457 -60
18:03:12.156733 705.55 976 3800 13952 932 389 -73
18:03:12.162738 705.56 1088 3828 14328 1199 739 -110
18:03:12.162950 705.57 896 3760 13788 777 510 -37
18:03:12.164910 705.58 1012 3868 13852 384 443 -17
18:03:12.190769 705.59 1040 3732 13820 453 335 -39
18:03:12.198164 705.6 1068 3892 14024 815 452 -111
18:03:12.217131 705.61 1088 3872 13988 1053 370 -78
18:03:12.229933 705.62 1064 3892 13928 723 370 -58
18:03:12.230262 705.63 984 3920 14048 590 335 14
18:03:12.254089 705.64 1072 3884 13976 616 303 -44
18:03:12.264459 705.65 1112 3992 14040 606 271 -59
18:03:12.264623 705.66 1124 3988 13932 562 271 -36
18:03:12.264834 705.67 1100 4024 14040 597 342 -51
18:03:12.272609 705.68 1084 3908 14044 667 401 -98
18:03:12.288175 705.69 1020 4136 14072 678 372 -55
18:03:12.296629 705.7 1064 4032 13944 566 361 -60
18:03:12.320187 705.71 1048 4060 14024 485 372 -31
18:03:12.328852 705.72 1092 3952 14104 515 358 -62
18:03:12.329008 705.73 1056 4100 13940 577 355 -25
18:03:12.329272 705.74 936 4040 13824 458 349 -46
18:03:12.348435 705.75 1040 4008 13852 372 354 -37
18:03:12.369754 705.76 1028 4080 13876 442 397 -72
18:03:12.370283 705.77 892 4128 13832 475 406 -82
18:03:12.371570 705.78 876 4132 13988 475 365 -56
18:03:12.382738 705.79 1008 4084 13932 449 347 -40
18:03:12.411248 705.8 1036 4216 13940 348 370 -41
18:03:12.414339 705.81 948 4136 13836 323 345 -21
18:03:12.414448 705.82 1028 4220 13964 309 361 -40
18:03:12.441424 705.83 976 4220 13896 354 373 -29
18:03:12.454198 705.84 964 4224 13880 333 312 16
18:03:12.454825 705.85 924 4208 13908 284 314 -15
18:03:12.472607 705.86 928 4180 13784 257 325 -31
18:03:12.482051 705.87 940 4236 14024 311 344 -22
18:03:12.482458 705.88 948 4308 13964 292 358 -26
18:03:12.508524 705.89 992 4260 13960 277 335 4
18:03:12.513720 705.9 940 4220 13996 203 352 -43
18:03:12.513877 705.91 1060 4180 13880 219 340 -15
18:03:12.577342 705.92 1004 4224 13900 218 310 -30
18:03:12.589997 705.93 952 4220 13960 222 329 -26
18:03:12.590482 705.94 968 4312 13864 246 345 -36
18:03:12.590972 705.95 904 4244 13784 258 314 -47
18:03:12.591240 705.96 932 4168 14060 237 329 -37
18:03:12.591590 705.97 992 4392 13820 242 349 -34
18:03:12.592486 705.98 984 4300 14060 205 325 -16
18:03:12.593715 705.99 844 4328 13756 206 281 -22
18:03:12.640217 706.0 876 4304 13924 185 328 -35
18:03:12.651170 706.01 868 4264 13852 145 279 -29
18:03:12.656761 706.02 948 4356 13796 165 321 -26
18:03:12.658749 706.03 860 4376 13900 106 278 -22
18:03:12.690355 706.04 884 4316 13904 127 328 -27
18:03:12.691637 706.05 876 4272 13808 116 284 -32
18:03:12.692701 706.06 964 4340 13952 73 338 16
18:03:12.718338 706.07 896 4300 13928 53 288 -25
18:03:12.721440 706.08 864 4404 13880 73 309 -14
18:03:12.774806 706.09 868 4364 13820 38 274 -23
18:03:12.810972 706.1 952 4400 13936 12 313 2
18:03:12.813635 706.11 948 4416 13824 -31 325 -25
18:03:12.813775 706.12 892 4476 13880 -32 329 -17
18:03:12.815911 706.13 896 4516 13884 -39 336 -35
18:03:12.879576 706.14 956 4356 13992 -76 274 -21
18:03:12.880290 706.15 896 4244 13824 -78 284 -11
18:03:12.883313 706.16 860 4500 13848 -94 305 13
18:03:12.884557 706.17 840 4328 13904 -132 286 -7
18:03:13.006961 706.18 860 4344 13948 -173 280 15
18:03:13.015008 706.19 764 4368 13916 -215 300 -2
18:03:13.041230 706.2 884 4276 13824 -321 221 4
18:03:13.049292 706.21 900 4496 13924 -387 245 15
18:03:13.049602 706.22 804 4424 13912 -511 218 -13
18:03:13.049933 706.23 884 4312 13852 -747 147 38
18:03:13.050254 706.24 888 4348 14016 -758 253 22
18:03:13.050577 706.25 732 4428 14032 -893 231 24
18:03:13.060148 706.26 816 4408 13932 -1159 131 69
18:03:13.210739 706.27 820 4268 13888 -1407 24 110
18:03:13.222572 706.28 844 3860 13740 -1952 -204 267
18:03:13.227814 706.29 868 3740 13632 -2318 -437 318
18:03:13.228405 706.3 1104 3800 13984 -1195 -176 149
18:03:13.251173 706.31 1008 3912 14308 -1070 -237 145
18:03:13.251341 706.32 1036 3912 14312 -1357 -273 167
18:03:13.251487 706.33 1084 3808 14120 -1733 -178 224
18:03:13.251675 706.34 948 3752 14104 -1770 -264 245
18:03:13.251926 706.35 1116 3828 14124 -1927 -259 228
18:03:13.252111 706.36 1096 3708 14140 -2065 -167 224
18:03:13.253001 706.37 1204 3292 14156 -1904 -206 153
18:03:13.254250 706.38 1204 3276 14220 -1918 -231 185
18:03:13.255279 706.39 1192 3132 14280 -1924 -199 182
18:03:13.258015 706.4 1244 3164 14052 -1921 -166 145
18:03:13.275625 706.41 1132 3028 14108 -1833 -176 113
18:03:13.284114 706.42 1124 3016 14100 -1739 -185 118
18:03:13.284252 706.43 1280 3016 14156 -1584 -112 98
18:03:13.342458 706.44 1216 2852 14168 -1373 -100 77
18:03:13.371469 706.45 1260 3016 14288 -1178 31 68
18:03:13.387571 706.46 1256 3012 14308 -1294 13 103
18:03:13.387712 706.47 1204 2904 14192 -1293 22 46
18:03:13.387800 706.48 1248 2936 14284 -1148 159 75
18:03:13.387883 706.49 1252 2916 13852 -1682 -129 108
18:03:13.387965 706.5 1340 2712 14060 -1698 -231 67
18:03:13.388537 706.51 1232 2696 14240 -933 -53 -14
18:03:13.421131 706.52 1280 2860 14176 -1013 -148 47
18:03:13.440654 706.53 1356 2764 14112 -1276 -116 67
18:03:13.462633 706.54 1244 2756 14232 -1352 -92 110
18:03:13.464564 706.55 1300 2796 14204 -1278 -94 59
18:03:13.486420 706.56 1332 2708 14352 -1317 -193 58
18:03:13.496977 706.57 1360 2568 14328 -1398 -84 40
18:03:13.505577 706.58 1264 2648 14204 -1326 -25 36
18:03:13.505667 706.59 1320 2552 14324 -1412 -25 38
18:03:13.505737 706.6 1256 2608 14272 -1561 -17 30
18:03:13.505808 706.61 1312 2448 14276 -1591 -40 24
18:03:13.539651 706.62 1444 2384 14204 -1593 -73 54
18:03:13.558154 706.63 1356 2412 14248 -1527 -101 92
18:03:13.567534 706.64 1328 2380 14220 -1452 -139 13
18:03:13.586389 706.65 1464 2408 14440 -1239 -74 22
18:03:13.590249 706.66 1400 2416 14188 -1310 -103 15
18:03:13.590375 706.67 1308 2256 14280 -1341 -94 46
18:03:13.590630 706.68 1380 2336 14252 -1278 -46 43
18:03:13.591772 706.69 1384 2284 14356 -1181 -51 25
18:03:13.649223 706.7 1444 2276 14300 -1283 -42 55
18:03:13.654007 706.71 1516 2288 14220 -1454 -77 68
18:03:13.654130 706.72 1340 2304 14264 -1461 -33 27
18:03:13.654235 706.73 1360 2264 14232 -1489 -26 43
18:03:13.655050 706.74 1492 2168 14212 -1517 -8 42
18:03:13.657186 706.75 1420 2136 14080 -1503 -96 44
18:03:13.681612 706.76 1380 2040 14180 -1280 -88 24
18:03:13.691856 706.77 1528 2052 14156 -1154 13 -13
18:03:13.717796 706.78 1400 2060 14248 -1030 9 39
18:03:13.725188 706.79 1360 2080 14236 -1132 -20 58
18:03:13.725333 706.8 1392 1968 14184 -984 20 51
18:03:13.725547 706.81 1516 1992 14332 -995 33 63
18:03:13.725800 706.82 1440 2008 14316 -1074 18 6
18:03:13.727550 706.83 1496 1932 14364 -1067 10 34
18:03:13.728412 706.84 1464 1832 14248 -1032 21 -6
18:03:13.773305 706.85 1544 1936 14212 -1028 46 49
18:03:13.783706 706.86 1424 1908 14224 -944 103 5
18:03:13.784016 706.87 1520 1976 14320 -1029 72 10
18:03:13.784276 706.88 1500 1888 14164 -1054 30 -5
18:03:13.784522 706.89 1524 1740 14316 -1027 -52 14
18:03:13.784766 706.9 1540 1780 14084 -929 -31 2
18:03:13.785168 706.91 1564 1768 14228 -785 13 10
18:03:13.786555 706.92 1560 1696 14180 -737 21 41
18:03:13.787677 706.93 1544 1832 14372 -629 66 20
18:03:13.793276 706.94 1408 1772 14208 -621 107 27
18:03:13.817408 706.95 1552 1832 14372 -599 70 35
18:03:13.823406 706.96 1544 1804 14300 -612 62 25
18:03:13.823507 706.97 1604 1692 14232 -551 63 14
18:03:13.859112 706.98 1544 1740 14380 -445 106 35
18:03:13.860699 706.99 1572 1692 14212 -355 182 32
18:03:13.861609 707.0 1584 1760 14208 -329 195 19
18:03:13.926308 707.01 1496 1760 14160 -345 145 47
18:03:13.927608 707.02 1444 1756 14052 -372 74 45
18:03:13.928997 707.03 1540 1684 14132 -218 74 49
18:03:13.930183 707.04 1620 1624 14224 162 262 35
18:03:13.942901 707.05 1500 1664 14396 461 417 -17
18:03:13.952542 707.06 1616 1716 14380 562 408 -28
18:03:13.952661 707.07 1528 1752 14220 539 334 8
18:03:13.952774 707.08 1420 1596 14020 519 236 -5
18:03:13.980372 707.09 1452 1672 14088 570 152 60
18:03:13.985741 707.1 1472 1708 14376 968 377 -24
18:03:13.986028 707.11 1536 1756 14460 1064 671 -27
18:03:13.986194 707.12 1372 2084 13920 172 475 32
18:03:13.987870 707.13 1548 1652 14196 178 293 35
18:03:13.995199 707.14 1736 1792 14780 1816 824 -153
18:03:14.011028 707.15 1336 2044 14132 1672 206 -90
18:03:14.038642 707.16 1564 1880 13864 855 2 12
18:03:14.056838 707.17 1668 1824 14516 1920 797 -115
18:03:14.057003 707.18 1304 2056 13648 1048 145 23
18:03:14.057221 707.19 1464 1904 13700 741 66 121
18:03:14.074217 707.2 1636 1920 14164 1770 798 -3
18:03:14.090576 707.21 1512 2180 14660 2375 834 -114
18:03:14.095297 707.22 1508 2308 14676 2301 767 -96
18:03:14.097188 707.23 1384 2412 14284 2022 597 -41
18:03:14.109336 707.24 1312 2368 14308 1978 696 -26
18:03:14.120402 707.25 1360 2416 14348 2098 682 -28
18:03:14.132582 707.26 1400 2432 14340 1864 478 -28
18:03:14.153532 707.27 1424 2340 14148 1847 497 -56
18:03:14.153752 707.28 1304 2520 14084 1774 589 -71
18:03:14.173053 707.29 1400 2460 13960 1792 623 -37
18:03:14.191465 707.3 1444 2416 14072 2058 687 -89
18:03:14.192336 707.31 1400 2488 14152 2352 700 -102
18:03:14.193950 707.32 1496 2640 14376 2386 769 -134
18:03:14.209387 707.33 1396 2552 14364 2329 716 -117
18:03:14.223802 707.34 1284 2788 14300 2247 711 -144
18:03:14.223945 707.35 1340 2824 14320 2063 691 -82
18:03:14.227670 707.36 1264 2980 14112 1792 647 -103
18:03:14.251754 707.37 1320 2900 14284 1696 636 -76
18:03:14.276837 707.38 1324 2912 14088 1675 540 -86
18:03:14.289194 707.39 1272 2964 14084 1427 548 -72
18:03:14.289309 707.4 1344 3096 14184 1393 648 -104
18:03:14.289373 707.41 1192 3072 14128 1396 655 -134
18:03:14.289434 707.42 1152 3088 14132 1466 596 -88
18:03:14.329166 707.43 1212 3164 14024 1455 643 -88
18:03:14.331611 707.44 1212 3144 14100 1494 685 -113
18:03:14.356866 707.45 1176 3324 14200 1570 643 -120
18:03:14.359027 707.46 1184 3332 14380 1462 531 -125
18:03:14.359833 707.47 1248 3320 14360 1676 946 -136
18:03:14.361817 707.48 1160 3408 14060 1041 570 -65
18:03:14.411968 707.49 1180 3280 14036 778 560 -61
18:03:14.420954 707.5 1200 3276 13836 996 481 -51
18:03:14.431176 707.51 1164 3412 14024 1087 359 -65
18:03:14.432238 707.52 1316 3316 14120 1382 540 -133
18:03:14.433333 707.53 1188 3412 14024 1311 471 -83
18:03:14.436346 707.54 1252 3424 14124 1067 440 -60
18:03:14.484483 707.55 1208 3508 14012 1114 413 -26
18:03:14.576772 707.56 1172 3536 14124 1060 417 -47
18:03:14.625613 707.57 1192 3592 14136 1072 477 -85
18:03:14.676730 707.58 1072 3588 13888 1244 467 -77
18:03:14.695053 707.59 1116 3660 14156 1189 564 -99
18:03:14.695228 707.6 1232 3724 14228 1150 576 -121
18:03:14.695295 707.61 1184 3700 14104 1019 627 -62
18:03:14.695356 707.62 1164 3740 14164 876 530 -76
18:03:14.695416 707.63 1120 3632 14200 1004 485 -68
18:03:14.779506 707.64 1052 3792 14120 978 413 -54
18:03:14.793363 707.65 1060 3652 14060 854 365 -63
18:03:14.793548 707.66 1076 3840 13960 865 424 -71
18:03:14.793684 707.67 952 3988 13952 733 412 -24
18:03:14.793817 707.68 1056 4092 13944 631 415 -51
18:03:14.793951 707.69 1020 4072 13956 568 382 -45
18:03:14.794080 707.7 1044 4088 13996 554 369 -38
18:03:14.794209 707.71 936 4052 13980 513 361 -31
18:03:14.844320 707.72 1016 4052 14020 540 357 -43
18:03:14.918206 707.73 1000 4160 13956 538 367 -30
18:03:14.963807 707.74 988 4124 13788 517 375 -42
18:03:14.988649 707.75 1108 4192 13900 471 376 -67
18:03:14.991882 707.76 904 4232 13924 406 393 -77
18:03:15.001105 707.77 916 4180 13840 440 364 -38
18:03:15.062447 707.78 1016 4180 13932 378 373 -55
18:03:15.064983 707.79 852 4264 13844 369 387 -38
18:03:15.067659 707.8 812 4220 13952 311 339 -20
18:03:15.068891 707.81 976 4260 13908 306 374 -46
18:03:15.069796 707.82 876 4292 13916 279 351 -20
18:03:15.071249 707.83 880 4352 13828 193 355 -50
18:03:15.074417 707.84 940 4272 13724 -96 197 20
18:03:15.096322 707.85 1024 4392 13948 236 444 -62
18:03:15.097708 707.86 960 4460 14016 213 441 -77
18:03:15.098807 707.87 856 4400 14004 6 343 -37
18:03:15.099932 707.88 836 4392 13964 -361 149 60
18:03:15.102282 707.89 820 4296 13312 -1058 -18 169
18:03:15.103853 707.9 1124 4260 14012 -326 395 -2
18:03:15.127491 707.91 768 4608 14136 408 353 -87
18:03:15.153538 707.92 856 4464 13872 -469 -128 75
18:03:15.165141 707.93 1020 4372 13736 -427 214 60
18:03:15.165294 707.94 616 4332 13460 -943 -21 165
18:03:15.165450 707.95 920 4092 13512 -824 -133 133
18:03:15.165570 707.96 1064 4152 13696 -371 62 91
18:03:15.168114 707.97 1024 4284 14124 -168 41 41
18:03:15.171561 707.98 912 4424 14028 -74 -143 43
18:03:15.197650 707.99 884 4372 14140 -221 -103 66
18:03:15.214213 708.0 944 4300 14020 -271 -57 108
18:03:15.232861 708.01 836 4312 13992 -222 -51 96
18:03:15.233104 708.02 884 4420 13888 -219 56 53
18:03:15.247137 708.03 952 4364 13812 -188 230 22
18:03:15.261202 708.04 944 4384 13788 -178 282 13
18:03:15.265053 708.05 968 4328 13848 -143 307 11
18:03:15.267939 708.06 944 4328 13888 -35 251 29
18:03:15.284222 708.07 1024 4312 13960 -18 249 6
18:03:15.293298 708.08 972 4320 13952 -56 249 -19
18:03:15.320320 708.09 920 4308 13932 -133 228 -12
18:03:15.329679 708.1 916 4272 13928 -246 221 29
18:03:15.329933 708.11 980 4312 14052 -390 153 42
18:03:15.330106 708.12 1004 4340 13960 -552 126 35
18:03:15.347540 708.13 920 4268 13964 -654 181 58
18:03:15.365156 708.14 936 4216 13968 -742 120 105
18:03:15.365988 708.15 864 4316 13900 -857 89 116
18:03:15.367072 708.16 872 4324 13876 -941 115 103
18:03:15.368151 708.17 992 4196 13928 -1000 88 89
18:03:15.387468 708.18 960 4216 13940 -1003 143 56
18:03:15.400347 708.19 1000 4248 13940 -1031 154 82
18:03:15.400539 708.2 956 4152 13960 -1059 95 104
18:03:15.426631 708.21 948 4292 13964 -999 104 81
18:03:15.429983 708.22 1020 4272 13936 -991 132 77
18:03:15.430138 708.23 904 4216 13968 -1185 -11 81
18:03:15.435716 708.24 1008 4160 14268 -1175 255 62
18:03:15.489726 708.25 924 4092 13816 -1387 144 141
18:03:15.499165 708.26 1048 4072 13572 -1989 -179 219
18:03:15.499281 708.27 1072 3868 14024 -1351 49 115
18:03:15.499366 708.28 1044 3884 14092 -1014 -27 98
18:03:15.499448 708.29 1084 3936 13860 -1185 -86 118
18:03:15.503331 708.3 1064 3960 13796 -1324 -56 163
18:03:15.504497 708.31 956 3944 13876 -1427 -125 165
18:03:15.517821 708.32 1092 3860 14068 -1342 -43 161
18:03:15.533719 708.33 1060 3900 14148 -1339 -90 164
18:03:15.549146 708.34 1092 3844 14096 -1469 -84 141
18:03:15.561079 708.35 1052 3748 14128 -1589 -37 135
18:03:15.561193 708.36 1088 3780 14160 -1581 -39 131
18:03:15.586335 708.37 1100 3760 14124 -1722 -58 138
18:03:15.594094 708.38 1080 3788 14004 -1854 -107 170
18:03:15.602491 708.39 1016 3520 14108 -2041 -152 220
18:03:15.604592 708.4 1136 3556 14044 -2077 -221 200
18:03:15.617687 708.41 1024 3588 14004 -2085 -217 182
18:03:15.630627 708.42 1204 3412 13960 -2146 -274 210
18:03:15.653504 708.43 1112 3488 14036 -2147 -285 215
18:03:15.661167 708.44 1112 3312 13936 -2146 -331 194
18:03:15.661349 708.45 1148 3372 13996 -2039 -237 136
18:03:15.661473 708.46 1068 3292 14036 -1957 -306 151
18:03:15.684730 708.47 1148 3204 14084 -1780 -245 127
18:03:15.694111 708.48 1140 3164 14132 -1844 -250 126
18:03:15.699555 708.49 1128 3216 14228 -1906 -144 142
18:03:15.700857 708.5 1220 3148 14112 -1923 -171 158
18:03:15.705300 708.51 1204 3200 14176 -1805 -144 133
18:03:15.720710 708.52 1228 3136 14000 -1704 -183 145
18:03:15.737797 708.53 1156 3112 14040 -1718 -168 126
18:03:15.739374 708.54 1236 2948 14260 -1705 -197 132
18:03:15.755458 708.55 1188 3068 14152 -1687 -103 123
18:03:15.762830 708.56 1160 2984 14060 -1787 -175 112
18:03:15.773357 708.57 1332 2964 14116 -1604 -146 125
18:03:15.797546 708.58 1292 2984 14160 -1626 -170 80
18:03:15.797830 708.59 1280 2896 14196 -1622 -221 83
18:03:15.823734 708.6 1244 2832 14176 -1551 -171 91
18:03:15.830552 708.61 1312 2804 14112 -1482 -153 81
18:03:15.830694 708.62 1280 2764 14292 -1398 -116 93
18:03:15.832652 708.63 1340 2692 14228 -1362 -46 72
18:03:15.840199 708.64 1304 2768 14248 -1286 -44 42
18:03:15.867492 708.65 1376 2696 14048 -1340 -110 63
18:03:15.872961 708.66 1280 2664 14308 -1441 -91 63
18:03:15.874262 708.67 1264 2784 14028 -1325 -103 29
18:03:15.895443 708.68 1396 2520 14256 -1371 -154 51
18:03:15.901072 708.69 1384 2612 14224 -1329 -58 56
18:03:15.918856 708.7 1252 2532 14088 -1326 -57 39
18:03:15.931182 708.71 1332 2504 14340 -1334 -80 46
18:03:15.931292 708.72 1376 2504 14216 -1381 -34 47
18:03:15.955949 708.73 1388 2408 14196 -1388 -101 40
18:03:15.965121 708.74 1432 2444 14296 -1399 -60 45
18:03:16.026573 708.75 1312 2380 14192 -1393 -102 32
18:03:16.032534 708.76 1348 2320 14296 -1474 -81 43
18:03:16.032668 708.77 1460 2272 14224 -1397 -89 37
18:03:16.032832 708.78 1412 2396 14236 -1304 -87 31
18:03:16.033011 708.79 1452 2244 14404 -1375 -99 39
18:03:16.034334 708.8 1492 2300 14144 -1367 -52 26
18:03:16.058280 708.81 1504 2172 14168 -1402 -20 35
18:03:16.062859 708.82 1380 2220 14228 -1348 -32 54
18:03:16.063036 708.83 1408 2168 14176 -1363 -33 59
18:03:16.063172 708.84 1496 2080 14128 -1230 -3 38
18:03:16.094060 708.85 1324 2112 14112 -1177 18 21
18:03:16.104863 708.86 1432 2064 14284 -1181 -25 36
18:03:16.105006 708.87 1412 2052 14052 -1188 -28 59
18:03:16.105363 708.88 1444 2096 14312 -1130 -42 59
18:03:16.124212 708.89 1496 2096 14484 -1065 28 18
18:03:16.134385 708.9 1532 2044 14464 -1060 35 22
18:03:16.134578 708.91 1560 1996 14124 -1195 -44 24
18:03:16.134725 708.92 1492 1904 14096 -1281 -95 47
18:03:16.157338 708.93 1564 1932 14120 -1258 -81 45
18:03:16.168805 708.94 1584 1900 14376 -874 89 5
18:03:16.169031 708.95 1448 1984 14480 -639 171 -2
18:03:16.170726 708.96 1460 1972 14376 -748 45 -39
18:03:16.195115 708.97 1408 1960 14320 -871 -48 29
18:03:16.207286 708.98 1340 1880 14108 -969 -128 36
18:03:16.207860 708.99 1592 1756 14248 -735 -47 50
18:03:16.228349 709.0 1440 1800 14472 -531 203 19
18:03:16.260886 709.01 1492 2000 14312 -854 238 48
18:03:16.266747 709.02 1448 1860 13460 -1841 -125 116
18:03:16.267247 709.03 1808 1628 14332 -1369 27 55
18:03:16.267503 709.04 1676 1776 14628 194 239 -91
18:03:16.268343 709.05 1388 1768 13696 -978 -563 108
18:03:16.283983 709.06 1780 1616 14440 -560 81 34
18:03:16.297047 709.07 1472 1832 14088 -276 227 3
18:03:16.298069 709.08 1428 1656 13796 -1302 -513 175
18:03:16.316705 709.09 1740 1592 14112 -494 194 102
18:03:16.369168 709.1 1676 1744 14620 178 453 2
18:03:16.379720 709.11 1676 1728 14836 300 448 -48
18:03:16.379839 709.12 1476 1856 14448 120 241 4
18:03:16.379926 709.13 1492 1888 14348 -116 280 39
18:03:16.380406 709.14 1508 1748 14392 -165 316 57
18:03:16.380690 709.15 1588 1856 14264 -268 146 60
18:03:16.394782 709.16 1428 1764 14376 -223 99 93
18:03:16.421021 709.17 1536 1640 14112 -229 136 43
18:03:16.432935 709.18 1480 1684 13960 -148 182 54
18:03:16.433409 709.19 1628 1688 14008 75 211 77
18:03:16.433639 709.2 1544 1684 14012 477 308 11
18:03:16.433962 709.21 1552 1700 14364 769 324 -11
18:03:16.434350 709.22 1756 1748 14320 890 383 -22
18:03:16.451656 709.23 1628 1712 14412 831 418 -38
18:03:16.480346 709.24 1524 1880 14308 618 408 -22
18:03:16.488794 709.25 1544 1740 14364 536 409 -21
18:03:16.489196 709.259999999 1508 1868 14344 513 372 -17
18:03:16.490070 709.269999999 1524 1884 14164 480 278 17
18:03:16.509811 709.279999999 1584 1952 14168 529 322 18
18:03:16.511776 709.289999999 1508 1860 14084 601 360 5
18:03:16.561169 709.299999999 1524 2004 14212 772 345 -3
18:03:16.567471 709.309999999 1620 1936 14116 906 399 -5
18:03:16.567622 709.319999999 1536 1852 14080 1184 422 -11
18:03:16.567743 709.329999999 1440 2000 14260 1584 552 -50
18:03:16.568173 709.339999999 1472 2028 14300 1802 590 -75
18:03:16.596397 709.349999999 1432 2052 14104 1789 564 -76
18:03:16.606116 709.359999999 1432 2132 14436 2121 862 -115
18:03:16.606220 709.369999999 1412 2224 13908 1775 583 -43
18:03:16.606292 709.379999999 1512 2188 14036 1476 518 -24
18:03:16.630267 709.389999999 1604 2160 14260 2112 739 -122
18:03:16.636606 709.399999999 1388 2384 14028 2049 529 -97
18:03:16.644364 709.409999999 1444 2332 14220 2096 576 -131
18:03:16.667773 709.419999999 1284 2380 14300 2377 691 -136
18:03:16.667948 709.429999999 1360 2500 14244 2407 607 -127
18:03:16.693778 709.439999999 1344 2468 14216 2276 626 -110
18:03:16.701264 709.449999999 1400 2696 14140 2154 594 -75
18:03:16.701528 709.459999999 1460 2576 14356 2081 650 -113
18:03:16.704830 709.469999999 1484 2720 14260 2158 723 -142
18:03:16.706679 709.479999999 1496 2780 14392 2176 742 -140
18:03:16.710542 709.489999999 1400 2836 14204 2018 784 -148
18:03:16.731207 709.499999999 1332 2688 14364 1841 744 -131
18:03:16.757295 709.509999999 1456 2816 14100 1624 673 -118
18:03:16.773205 709.519999999 1368 2744 14088 1604 624 -127
18:03:16.776039 709.529999999 1440 2908 14100 1769 579 -87
18:03:16.788484 709.539999999 1384 2928 14184 1746 568 -76
18:03:16.804395 709.549999999 1276 2936 14132 1530 483 -83
18:03:16.812159 709.559999999 1272 3032 14156 1654 594 -123
18:03:16.834009 709.569999999 1316 3076 14088 1738 645 -109
18:03:16.858212 709.579999999 1288 3052 14060 1748 693 -122
18:03:16.867578 709.589999999 1168 3128 14116 1789 599 -112
18:03:16.867767 709.599999999 1192 3308 14196 1652 633 -131
18:03:16.867858 709.609999999 1204 3312 14112 1509 638 -100
18:03:16.867940 709.619999999 1228 3296 14084 1500 686 -86
18:03:16.868021 709.629999999 1284 3324 14080 1507 672 -78
18:03:16.868584 709.639999999 1304 3432 14120 1433 660 -104
18:03:16.920533 709.649999999 1264 3428 14128 1444 612 -106
18:03:16.959529 709.659999999 1228 3496 14092 1223 578 -72
18:03:16.976675 709.669999999 1192 3480 14020 1222 574 -110
18:03:16.977064 709.679999999 1228 3496 14072 1238 556 -87
18:03:16.977409 709.689999999 1164 3560 14188 1174 574 -75
18:03:16.977694 709.699999999 1232 3640 14112 1041 468 -55
18:03:16.978039 709.709999999 1140 3520 14016 1139 462 -63
18:03:16.978444 709.719999999 1124 3556 13888 1040 486 -41
18:03:17.076713 709.729999999 1116 3656 13968 1023 473 -89
18:03:17.088288 709.739999999 1176 3576 13908 1105 480 -53
18:03:17.112557 709.749999999 1196 3656 13844 1079 519 -93
18:03:17.123086 709.759999999 1140 3620 14036 1106 534 -102
18:03:17.123189 709.769999999 1156 3764 13940 1083 509 -88
18:03:17.123254 709.779999999 1096 3728 13984 1071 520 -109
18:03:17.123315 709.789999999 1036 3868 14012 1049 494 -104
18:03:17.123375 709.799999999 1072 3780 13940 951 468 -121
18:03:17.144886 709.809999999 1072 3908 14060 920 511 -82
18:03:17.153823 709.819999999 1172 3848 13980 892 468 -49
18:03:17.154016 709.829999999 1008 3864 13908 765 432 -56
18:03:17.154365 709.839999999 1048 3848 13936 751 425 -93
18:03:17.154721 709.849999999 1084 3948 13876 690 377 -63
18:03:17.155041 709.859999999 1036 3976 14124 680 423 -64
18:03:17.155680 709.869999999 1100 3980 13948 664 404 -67
18:03:17.158680 709.879999999 1128 3924 14084 607 454 -81
18:03:17.159941 709.889999999 960 4068 13948 596 440 -82
18:03:17.161288 709.899999999 1032 4000 14036 606 473 -27
18:03:17.189886 709.909999999 924 4064 13968 573 443 -41
18:03:17.190951 709.919999999 964 4212 13916 607 446 -55
18:03:17.191924 709.929999999 1040 4096 13980 524 462 -46
18:03:17.198710 709.939999999 984 4016 13916 499 414 -33
18:03:17.219548 709.949999999 956 4140 14024 464 436 -50
18:03:17.222525 709.959999999 1008 4040 13960 536 469 -61
18:03:17.224147 709.969999999 1020 4164 13900 434 456 -62
18:03:17.245208 709.979999999 1056 4124 14024 535 399 -57
18:03:17.252756 709.989999999 916 4148 14076 473 443 -33
18:03:17.257715 709.999999999 900 4228 13896 305 378 -63
18:03:17.279441 710.009999999 1036 4116 13764 206 331 -42
18:03:17.288388 710.019999999 1024 4092 13888 219 358 -29
18:03:17.288581 710.029999999 944 4196 13924 452 507 -50
18:03:17.295334 710.039999999 904 4328 14032 569 548 -79
18:03:17.350833 710.049999999 884 4296 14056 479 508 -114
18:03:17.356535 710.059999999 840 4212 13880 245 414 -81
18:03:17.356852 710.069999999 844 4252 13812 79 341 -29
18:03:17.357182 710.079999999 1008 4304 13804 103 313 -25
18:03:17.357498 710.089999999 940 4168 14204 232 233 -16
18:03:17.365973 710.099999999 852 4240 13876 -44 250 55
18:03:17.388467 710.109999999 860 4340 13448 -767 53 114
18:03:17.388690 710.119999999 1180 4124 14216 -38 509 -29
18:03:17.410993 710.129999999 1104 4472 14336 820 658 -181
18:03:17.420528 710.139999999 856 4408 13824 119 68 26
18:03:17.420773 710.149999999 912 4196 14024 -82 108 8
18:03:17.424800 710.159999999 952 4316 13816 -150 263 62
18:03:17.426514 710.169999999 868 4156 13484 -758 -104 139
18:03:17.478587 710.179999999 980 3984 13500 -325 105 117
18:03:17.486939 710.189999999 996 4132 13692 26 194 35
18:03:17.487180 710.199999999 1036 4260 13968 235 83 32
18:03:17.488407 710.209999999 888 4388 14108 279 -35 15
18:03:17.489638 710.219999999 920 4328 14068 189 41 56
18:03:17.490639 710.229999999 936 4280 14052 101 71 53
18:03:17.497881 710.239999999 848 4344 13936 80 121 47
18:03:17.514045 710.249999999 944 4436 13880 25 233 11
18:03:17.526527 710.259999999 892 4388 13776 37 353 -31
18:03:17.543357 710.269999999 968 4400 13904 66 390 -62
18:03:17.556289 710.279999999 880 4220 13784 95 292 -13
18:03:17.556453 710.289999999 920 4272 13840 223 239 -20
18:03:17.557615 710.299999999 908 4240 14040 298 268 3
18:03:17.583158 710.309999999 976 4276 13936 197 210 -7
18:03:17.589565 710.319999999 996 4360 13972 114 214 29
18:03:17.597665 710.329999999 896 4284 14016 -41 214 13
18:03:17.599194 710.339999999 1012 4356 13944 -93 229 -20
18:03:17.649494 710.349999999 880 4356 13952 -193 230 22
18:03:17.656791 710.359999999 924 4328 13828 -292 192 27
18:03:17.657224 710.369999999 888 4188 14020 -334 197 42
18:03:17.657632 710.379999999 928 4428 13928 -404 174 42
18:03:17.658026 710.389999999 952 4308 13964 -459 207 36
18:03:17.679907 710.399999999 1036 4324 13792 -474 220 30
18:03:17.694426 710.409999999 968 4380 13944 -506 201 3
18:03:17.708130 710.419999999 936 4364 13924 -495 235 20
18:03:17.723953 710.429999999 1052 4348 13824 -525 205 27
18:03:17.724049 710.439999999 1020 4296 13968 -549 213 42
18:03:17.724117 710.449999999 796 4424 13752 -556 209 27
18:03:17.748700 710.459999999 876 4252 13936 -769 27 51
18:03:17.757554 710.469999999 1008 4292 14080 -595 428 -1
18:03:17.763318 710.479999999 884 4260 13548 -1437 -133 173
18:03:17.767610 710.489999999 1084 4148 13720 -1397 119 135
18:03:17.791897 710.499999999 1056 4084 13956 -850 183 51
18:03:17.792195 710.509999999 960 4164 13908 -958 4 64
18:03:17.800397 710.519999999 904 4128 13872 -1172 -63 115
18:03:17.824030 710.529999999 840 4144 13944 -1263 -55 165
18:03:17.824139 710.539999999 996 4144 13832 -1439 -129 165
18:03:17.824222 710.549999999 1024 4080 13944 -1403 -121 141
18:03:17.845466 710.559999999 1064 4024 14044 -1323 -90 146
18:03:17.860530 710.569999999 1112 4096 14048 -1438 -50 139
18:03:17.860630 710.579999999 1048 4032 13952 -1547 -56 164
18:03:17.878302 710.589999999 1024 3992 13988 -1520 -62 156
18:03:17.894125 710.599999999 984 3940 14092 -1591 -36 149
18:03:17.894280 710.609999999 968 3880 14104 -1749 -73 193
18:03:17.897432 710.619999999 1068 3824 14104 -1808 -35 164
18:03:17.899749 710.629999999 1148 3796 14032 -1932 -136 173
18:03:17.919875 710.639999999 1100 3740 14144 -1984 -221 206
18:03:17.931803 710.649999999 1140 3744 14008 -1931 -251 191
18:03:17.932708 710.659999999 1056 3712 14044 -2066 -268 247
18:03:17.975673 710.669999999 1072 3608 14004 -2026 -272 222
18:03:17.979610 710.679999999 1160 3528 14032 -1767 -229 195
18:03:18.000949 710.689999999 1140 3576 13984 -1771 -168 181
18:03:18.006570 710.699999999 1048 3500 14112 -1862 -137 163
18:03:18.006680 710.709999999 1108 3436 13988 -1983 -245 194
18:03:18.006752 710.719999999 1148 3424 14176 -1839 -177 187
18:03:18.038195 710.729999999 1144 3460 14128 -1751 -176 195
18:03:18.039538 710.739999999 1096 3448 14232 -1737 -162 173
18:03:18.040385 710.749999999 1056 3440 14172 -1794 -148 151
18:03:18.043001 710.759999999 1236 3316 14004 -1803 -160 159
18:03:18.072712 710.769999999 1196 3280 14220 -1783 -168 137
18:03:18.080467 710.779999999 1212 3268 14104 -1764 -133 136
18:03:18.127862 710.789999999 1224 3288 14028 -1708 -204 115
18:03:18.141169 710.799999999 1208 3196 14168 -1640 -213 144
18:03:18.167055 710.809999999 1296 3272 14160 -1723 -212 117
18:03:18.174648 710.819999999 1244 3096 14224 -1762 -184 123
18:03:18.174934 710.829999999 1276 3036 13952 -1723 -186 141
18:03:18.175101 710.839999999 1284 2980 14036 -1723 -232 116
18:03:18.175198 710.849999999 1292 2964 14108 -1587 -158 93
18:03:18.213331 710.859999999 1276 2952 14104 -1551 -188 111
18:03:18.216562 710.869999999 1332 2944 14124 -1487 -140 91
18:03:18.243095 710.879999999 1276 2960 14204 -1445 -151 78
18:03:18.244974 710.889999999 1348 2980 14280 -1474 -120 80
18:03:18.248332 710.899999999 1440 2728 14200 -1393 -135 43
18:03:18.249916 710.909999999 1336 2872 14176 -1353 -64 67
18:03:18.251076 710.919999999 1348 2792 14236 -1463 -68 70
18:03:18.272968 710.929999999 1316 2732 14040 -1378 -122 70
18:03:18.343271 710.939999999 1224 2724 14056 -1409 -72 64
18:03:18.344470 710.949999999 1448 2624 14108 -1273 -88 93
18:03:18.345718 710.959999999 1300 2708 14320 -1273 -54 38
18:03:18.346834 710.969999999 1360 2692 14120 -1353 -56 36
18:03:18.347955 710.979999999 1400 2624 14192 -1349 -97 64
18:03:18.353887 710.989999999 1320 2624 14220 -1418 -54 59
18:03:18.379095 710.999999999 1388 2572 14072 -1346 -68 94
18:03:18.379252 711.009999999 1340 2536 14228 -1355 -43 43
18:03:18.379339 711.019999999 1468 2584 14272 -1315 -19 64
18:03:18.381090 711.029999999 1452 2464 14156 -1260 -83 54
18:03:18.382224 711.039999999 1388 2416 14276 -1212 1 67
18:03:18.383540 711.049999999 1452 2448 14172 -1215 -12 53
18:03:18.385151 711.059999999 1428 2288 14248 -1196 7 59
18:03:18.400174 711.069999999 1444 2272 14396 -1194 -10 62
18:03:18.437831 711.079999999 1444 2432 14260 -1194 -26 50
18:03:18.442803 711.089999999 1464 2236 14312 -1250 6 21
18:03:18.442976 711.099999999 1440 2340 14320 -1203 10 18
18:03:18.443115 711.109999999 1404 2160 14240 -1292 -55 45
18:03:18.443802 711.119999999 1328 2216 14336 -1293 1 19
18:03:18.470158 711.129999999 1536 2112 14224 -1238 1 21
18:03:18.478621 711.139999999 1484 2228 14260 -1292 7 47
18:03:18.478734 711.149999999 1540 2072 14172 -1365 -16 52
18:03:18.500906 711.159999999 1416 2052 14124 -1400 -103 47
18:03:18.509052 711.169999999 1556 1972 14224 -1286 -113 45
18:03:18.509163 711.179999999 1508 2176 14440 -837 127 7
18:03:18.512245 711.189999999 1552 2176 14476 -694 139 7
18:03:18.513861 711.199999999 1484 2236 14344 -865 137 3
18:03:18.577030 711.209999999 1404 1960 14276 -967 38 17
18:03:18.579910 711.219999999 1520 2004 14128 -1069 -128 97
18:03:18.580049 711.229999999 1608 1876 14348 -882 -43 74
18:03:18.586254 711.239999999 1524 1980 14380 -602 196 15
18:03:18.609938 711.249999999 1460 2084 14256 -973 210 51
18:03:18.633045 711.259999999 1364 2000 13656 -1770 -58 92
18:03:18.668143 711.269999999 1748 1672 14336 -1300 94 56
18:03:18.677237 711.279999999 1608 1832 14612 230 311 -102
18:03:18.677446 711.289999999 1412 2016 13664 -780 -417 87
18:03:18.677822 711.299999999 1712 1664 14368 -554 -37 59
18:03:18.678184 711.309999999 1392 1948 13924 -166 211 7
18:03:18.678547 711.319999999 1404 1684 13764 -1122 -433 152
18:03:18.678950 711.329999999 1684 1668 14268 -49 384 53
18:03:18.679128 711.339999999 1540 1848 14400 513 515 -52
18:03:18.681056 711.349999999 1560 1996 14620 625 458 -35
18:03:18.682055 711.359999999 1568 1892 14344 526 334 -39
18:03:18.708812 711.369999999 1476 1992 14168 249 290 22
18:03:18.715691 711.379999999 1508 1896 14124 333 306 59
18:03:18.736643 711.389999999 1504 2008 14244 203 231 38
18:03:18.748459 711.399999999 1500 1928 14140 235 208 48
18:03:18.748784 711.409999999 1544 1960 14064 253 309 28
18:03:18.748940 711.419999999 1424 1912 13864 356 346 27
18:03:18.772234 711.429999999 1604 1796 14144 631 402 13
18:03:18.786510 711.439999999 1632 1920 14148 1042 412 -36
18:03:18.786981 711.449999999 1524 1876 14268 1332 422 -54
18:03:18.791159 711.459999999 1540 1908 14508 1463 524 -98
18:03:18.815557 711.469999999 1540 2020 14468 1308 491 -71
18:03:18.857632 711.479999999 1516 2068 14352 1077 445 -47
18:03:18.862342 711.489999999 1560 2136 14276 864 452 -31
18:03:18.873828 711.499999999 1592 2108 14208 776 363 -17
18:03:18.886950 711.509999999 1500 2164 14320 680 321 -1
18:03:18.887344 711.519999999 1592 2168 14168 708 282 -27
18:03:18.887752 711.529999999 1480 2132 14240 843 329 6
18:03:18.888040 711.539999999 1436 2112 14016 913 308 2
18:03:18.888385 711.549999999 1496 2176 14120 1008 358 -8
18:03:18.888771 711.559999999 1312 2308 14096 1259 421 -30
18:03:18.889035 711.569999999 1356 2320 14052 1590 541 -65
18:03:18.901983 711.579999999 1436 2448 14276 1882 555 -71
18:03:18.925272 711.589999999 1484 2444 14252 1948 637 -103
18:03:18.933630 711.599999999 1416 2452 14464 1971 685 -108
18:03:18.951735 711.609999999 1404 2596 14268 1995 743 -103
18:03:18.970539 711.619999999 1404 2528 14040 1289 374 15
18:03:18.970916 711.629999999 1484 2536 14112 1092 624 -68
18:03:18.989377 711.639999999 1484 2556 13968 1490 544 -97
18:03:18.998498 711.649999999 1440 2612 14004 1328 310 -70
18:03:18.998636 711.659999999 1468 2648 14296 1604 516 -73
18:03:19.011944 711.669999999 1372 2712 14204 1599 437 -69
18:03:19.021130 711.679999999 1340 2684 14204 1560 421 -43
18:03:19.021334 711.689999999 1560 2800 14188 1576 360 -54
18:03:19.049085 711.699999999 1436 2820 14048 1590 503 -69
18:03:19.050827 711.709999999 1476 2900 14248 1663 654 -148
18:03:19.073738 711.719999999 1264 2916 14384 1773 624 -101
18:03:19.078332 711.729999999 1376 2888 14128 1700 559 -145
18:03:19.078425 711.739999999 1388 2932 14168 1662 567 -109
18:03:19.078725 711.749999999 1356 2952 14188 1522 531 -122
18:03:19.081574 711.759999999 1220 2988 14188 1636 488 -70
18:03:19.096554 711.769999999 1392 2996 14072 1766 529 -87
18:03:19.132031 711.779999999 1276 3112 14068 1799 534 -126
18:03:19.135130 711.789999999 1324 3212 14080 1517 526 -126
18:03:19.135219 711.799999999 1332 3236 14032 1531 569 -103
18:03:19.136540 711.809999999 1260 3236 14176 1553 623 -143
18:03:19.151843 711.819999999 1236 3376 14232 1484 621 -127
18:03:19.164776 711.829999999 1288 3408 14256 1304 610 -105
18:03:19.166328 711.839999999 1252 3412 13964 1073 553 -98
18:03:19.187356 711.849999999 1272 3400 14016 966 519 -97
18:03:19.196417 711.859999999 1180 3400 14136 982 480 -61
18:03:19.202353 711.869999999 1208 3448 14188 882 492 -28
18:03:19.204833 711.879999999 1232 3428 14184 874 504 -63
18:03:19.225611 711.889999999 1292 3444 14076 925 500 -76
18:03:19.229998 711.899999999 1180 3420 13876 956 473 -55
18:03:19.297500 711.909999999 1240 3464 14084 993 510 -84
18:03:19.300815 711.919999999 1200 3496 14152 1050 523 -49
18:03:19.300953 711.929999999 1316 3536 13972 1050 504 -69
18:03:19.301072 711.939999999 1148 3544 14084 1014 487 -58
18:03:19.302992 711.949999999 1220 3532 14048 994 483 -37
18:03:19.306785 711.959999999 1240 3696 14032 947 477 -70
18:03:19.307620 711.969999999 1092 3684 14064 996 486 -91
18:03:19.325955 711.979999999 1100 3592 14104 1037 514 -94
18:03:19.332367 711.989999999 1248 3748 14008 996 508 -64
18:03:19.332530 711.999999999 1128 3760 13988 978 532 -91
18:03:19.353950 712.009999999 1200 3852 13932 954 490 -81
18:03:19.363360 712.019999999 1152 3832 13956 942 478 -92
18:03:19.363516 712.029999999 1140 3740 14024 884 449 -50
18:03:19.365036 712.039999999 1128 3840 14072 804 446 -98
18:03:19.383707 712.049999999 1128 3896 14044 833 453 -61
18:03:19.408816 712.059999999 1080 3864 13968 750 435 -81
18:03:19.429542 712.069999999 1088 3808 13896 745 407 -56
18:03:19.429664 712.079999999 992 3912 13908 679 435 -55
18:03:19.429753 712.089999999 1060 3980 14040 721 394 -80
18:03:19.429839 712.099999999 1108 3860 14068 693 431 -58
18:03:19.440220 712.109999999 1152 3916 13980 660 440 -69
18:03:19.451283 712.119999999 1156 3984 13932 605 446 -80
18:03:19.464780 712.129999999 1040 4020 14012 645 464 -58
18:03:19.466558 712.139999999 1112 4008 13916 610 451 -60
18:03:19.484084 712.149999999 1104 3932 13928 547 454 -51
18:03:19.531206 712.159999999 1128 4068 13948 538 440 -78
18:03:19.532433 712.169999999 1032 4028 13900 560 426 -71
18:03:19.534888 712.179999999 1116 4036 13880 485 427 -59
18:03:19.540080 712.189999999 1088 4160 13936 452 449 -71
18:03:19.542074 712.199999999 1068 4084 13988 473 427 -68
18:03:19.554792 712.209999999 968 4084 13840 355 376 -49
18:03:19.563607 712.219999999 1056 4144 13792 200 307 -29
18:03:19.563711 712.229999999 1060 4096 13928 170 237 -14
18:03:19.585072 712.239999999 1092 4172 13928 264 349 -32
18:03:19.600492 712.249999999 1016 4172 14096 519 525 -89
18:03:19.607629 712.259999999 896 4096 14024 494 460 -90
18:03:19.609410 712.269999999 924 4272 14004 340 379 -30
18:03:19.620142 712.279999999 912 4188 13896 106 319 -16
18:03:19.636151 712.289999999 1052 4144 13872 52 308 -51
18:03:19.655677 712.299999999 996 4188 13956 268 255 -18
18:03:19.667165 712.309999999 992 4148 14088 23 176 20
18:03:19.667343 712.319999999 944 4204 13528 -722 -15 105
18:03:19.690314 712.329999999 1224 4028 14020 20 458 -36
18:03:19.700618 712.339999999 1116 4464 14472 898 711 -176
18:03:19.700810 712.349999999 896 4292 13852 16 -39 27
18:03:19.704677 712.359999999 1144 4140 13904 -28 87 29
18:03:19.706303 712.369999999 1028 4272 13852 -54 298 44
18:03:19.725033 712.379999999 828 4068 13316 -676 -104 144
18:03:19.734989 712.389999999 1172 3992 13472 -333 82 109
18:03:19.740177 712.399999999 1172 4140 13664 60 263 15
18:03:19.757569 712.409999999 1020 4148 14096 326 79 -11
18:03:19.770760 712.419999999 1064 4288 14068 327 -17 1
18:03:19.787625 712.429999999 904 4268 13928 156 53 26
18:03:19.803925 712.439999999 928 4296 13984 114 39 34
18:03:19.804157 712.449999999 1008 4332 14072 99 111 34
18:03:19.804402 712.459999999 1024 4416 14028 105 256 8
18:03:19.821756 712.469999999 1120 4324 13856 183 332 -42
18:03:19.831761 712.479999999 1068 4348 13724 210 321 -48
18:03:19.837815 712.489999999 1048 4208 13808 312 305 -42
18:03:19.865986 712.499999999 996 4316 13980 425 266 -1
18:03:19.866934 712.509999999 1012 4148 13932 457 222 -4
18:03:19.868111 712.519999999 1012 4196 13876 328 271 -1
18:03:19.875136 712.529999999 980 4256 14012 283 265 -31
18:03:19.887301 712.539999999 1052 4316 13988 169 253 -20
18:03:19.901633 712.549999999 1024 4336 13900 129 318 -35
18:03:19.926420 712.559999999 1060 4376 13868 11 309 0
18:03:19.939632 712.569999999 1116 4296 13848 -61 274 -2
18:03:19.939802 712.579999999 1032 4368 13912 -84 258 25
18:03:19.939940 712.589999999 1060 4192 13960 -91 248 0
18:03:19.943082 712.599999999 1068 4324 13824 -107 280 -2
18:03:19.957722 712.609999999 1060 4320 13928 -95 246 0
18:03:19.974225 712.619999999 1052 4340 13808 -56 264 -11
18:03:19.989070 712.629999999 876 4376 13848 -25 309 -13
18:03:20.000462 712.639999999 1032 4376 13764 4 339 -13
18:03:20.000603 712.649999999 1032 4388 13900 35 399 -17
18:03:20.002673 712.659999999 912 4504 13860 38 340 -47
18:03:20.027347 712.669999999 928 4380 13836 -119 173 -22
18:03:20.036528 712.679999999 1068 4316 14280 205 597 -80
18:03:20.036639 712.689999999 952 4416 13572 -484 139 63
18:03:20.059721 712.699999999 1116 4188 13708 -419 312 20
18:03:20.069154 712.709999999 956 4352 13976 4 395 -29
18:03:20.080549 712.719999999 908 4384 13844 -126 250 -36
18:03:20.108459 712.729999999 1004 4268 13948 -206 210 -17
18:03:20.108912 712.739999999 944 4436 13984 -382 207 62
18:03:20.109371 712.749999999 1000 4360 13912 -375 146 39
18:03:20.126935 712.759999999 1032 4328 14032 -340 107 29
18:03:20.137930 712.769999999 1028 4336 13828 -486 87 42
18:03:20.139719 712.779999999 1064 4304 13960 -512 104 39
18:03:20.141495 712.789999999 1076 4340 13968 -503 47 22
18:03:20.158395 712.799999999 1028 4384 13968 -523 58 77
18:03:20.167014 712.809999999 1028 4324 13896 -585 15 61
18:03:20.175169 712.819999999 964 4352 14020 -613 34 96
18:03:20.194552 712.829999999 964 4268 13876 -732 36 88
18:03:20.208060 712.839999999 1044 4268 13912 -770 59 77
18:03:20.208470 712.849999999 1100 4288 13820 -721 124 44
18:03:20.213431 712.859999999 1040 4148 13836 -960 0 99
18:03:20.239811 712.869999999 1028 4220 13856 -1080 -39 115
18:03:20.240109 712.879999999 1076 4188 13832 -1129 -14 107
18:03:20.242520 712.889999999 1172 4228 13840 -1108 85 78
18:03:20.259830 712.899999999 1100 4124 13972 -1165 44 69
18:03:20.273308 712.909999999 956 4192 13956 -1270 24 120
18:03:20.273558 712.919999999 1072 4164 13868 -1520 -49 156
18:03:20.297585 712.929999999 1120 4128 14112 -1578 -67 182
18:03:20.306590 712.939999999 900 4068 13924 -1539 -120 173
18:03:20.306790 712.949999999 1192 4064 13968 -1612 -92 176
18:03:20.325728 712.959999999 1104 4012 13980 -1646 -132 212
18:03:20.334282 712.969999999 1040 3848 14128 -1539 -117 174
18:03:20.334488 712.979999999 1152 3940 14152 -1564 7 130
18:03:20.340054 712.989999999 1088 3988 14084 -1638 75 136
18:03:20.360042 712.999999999 1020 3852 13996 -1852 -63 173
18:03:20.372318 713.009999999 1100 3748 13948 -1987 -102 211
18:03:20.374049 713.019999999 1104 3832 13968 -2032 -166 215
18:03:20.377806 713.029999999 1132 3588 13988 -2019 -138 179
18:03:20.393924 713.039999999 1188 3568 14112 -1867 -138 156
18:03:20.406355 713.049999999 1112 3624 14028 -1788 -162 149
18:03:20.416657 713.059999999 1268 3576 14068 -1720 -59 150
18:03:20.438333 713.069999999 1232 3656 14016 -1628 -47 155
18:03:20.438491 713.079999999 1236 3644 14008 -1652 -59 149
18:03:20.463877 713.089999999 1256 3488 14092 -1787 -72 160
18:03:20.475013 713.099999999 1164 3464 13960 -1854 -199 180
18:03:20.475196 713.109999999 1208 3368 14060 -1750 -146 133
18:03:20.475775 713.119999999 1236 3460 14124 -1713 -150 136
18:03:20.497927 713.129999999 1256 3320 14032 -1698 -172 159
18:03:20.509750 713.139999999 1184 3368 14224 -1602 -105 121
18:03:20.514934 713.149999999 1188 3252 13944 -1632 -136 114
18:03:20.541335 713.159999999 1272 3180 14024 -1638 -121 131
18:03:20.541443 713.169999999 1272 3236 14084 -1631 -96 118
18:03:20.541512 713.179999999 1372 3276 14160 -1631 -110 126
18:03:20.566649 713.189999999 1260 3148 14096 -1686 -111 129
18:03:20.577011 713.199999999 1192 3172 14040 -1675 -124 120
18:03:20.577168 713.209999999 1320 3156 14032 -1589 -107 93
18:03:20.577287 713.219999999 1204 3012 14320 -1568 -79 99
18:03:20.597816 713.229999999 1312 3044 14204 -1523 -101 94
18:03:20.606890 713.239999999 1328 3056 14200 -1570 -86 89
18:03:20.610168 713.249999999 1228 2928 14216 -1587 -98 87
18:03:20.626703 713.259999999 1332 3052 14148 -1621 -93 94
18:03:20.640804 713.269999999 1388 2892 14104 -1624 -81 105
18:03:20.640980 713.279999999 1304 2836 13996 -1566 -123 122
18:03:20.661014 713.289999999 1296 2784 14024 -1486 -56 93
18:03:20.675309 713.299999999 1348 2848 14192 -1437 -7 96
18:03:20.675428 713.309999999 1324 2844 14184 -1454 -19 53
18:03:20.677482 713.319999999 1388 2828 14160 -1554 -7 19
18:03:20.695224 713.329999999 1360 2696 14056 -1491 -18 21
18:03:20.708827 713.339999999 1400 2732 14216 -1442 -45 55
18:03:20.708957 713.349999999 1280 2724 14068 -1540 -98 51
18:03:20.715211 713.359999999 1468 2648 14164 -1562 -97 78
18:03:20.730701 713.369999999 1336 2516 14076 -1379 -97 71
18:03:20.745184 713.379999999 1436 2504 14384 -1060 36 40
18:03:20.759426 713.389999999 1284 2592 14364 -941 49 11
18:03:20.773723 713.399999999 1452 2568 14312 -1142 103 0
18:03:20.773866 713.409999999 1300 2456 14244 -1217 -49 36
18:03:20.775002 713.419999999 1384 2508 14200 -1330 -120 69
18:03:20.793943 713.429999999 1420 2392 14184 -1175 -89 77
18:03:20.803951 713.439999999 1388 2452 14468 -987 84 35
18:03:20.813169 713.449999999 1404 2528 14192 -1251 148 83
18:03:20.830746 713.459999999 1464 2576 13704 -2186 -38 104
18:03:20.839443 713.469999999 1592 2248 14160 -1981 -126 79
18:03:20.865435 713.479999999 1640 2252 14708 -479 350 -100
18:03:20.873617 713.489999999 1220 2480 13924 -901 -367 63
18:03:20.873725 713.499999999 1492 2132 14036 -1487 -416 81
18:03:20.873796 713.509999999 1528 2192 14416 -527 362 -2
18:03:20.892341 713.519999999 1300 2240 13716 -1615 -478 146
18:03:20.910887 713.529999999 1548 2056 13792 -1494 -265 154
18:03:20.911093 713.539999999 1552 2184 14452 -524 336 -16
18:03:20.911223 713.549999999 1512 2340 14720 -308 329 -10
18:03:20.927488 713.559999999 1396 2292 14500 -517 198 5
18:03:20.941858 713.569999999 1352 2304 14488 -911 43 39
18:03:20.947730 713.579999999 1412 2316 14288 -1080 90 50
18:03:20.975678 713.589999999 1420 2200 14408 -1140 -8 104
18:03:20.976892 713.599999999 1556 2164 14208 -1154 -15 69
18:03:20.978061 713.609999999 1416 2128 14188 -1281 24 57
18:03:20.998110 713.619999999 1564 1936 14116 -1261 46 42
18:03:21.006101 713.629999999 1476 1920 13964 -1015 75 49
18:03:21.007517 713.639999999 1600 1884 14020 -697 41 52
18:03:21.015256 713.649999999 1456 1916 14244 -345 51 20
18:03:21.030225 713.659999999 1524 1884 14320 -174 141 20
18:03:21.047349 713.669999999 1588 1848 14516 -161 170 15
18:03:21.048367 713.679999999 1464 1976 14276 -304 159 22
18:03:21.063543 713.689999999 1592 2020 14208 -317 195 22
18:03:21.074025 713.699999999 1572 1976 14392 -350 181 1
18:03:21.075178 713.709999999 1488 1924 14124 -386 145 47
18:03:21.094718 713.719999999 1512 1900 14252 -388 120 34
18:03:21.107349 713.729999999 1544 1872 14240 -308 142 33
18:03:21.108945 713.739999999 1596 1856 14168 -205 169 20
18:03:21.129747 713.749999999 1540 2032 14224 -24 263 31
18:03:21.138778 713.759999999 1452 2064 14248 142 265 33
18:03:21.138993 713.769999999 1596 1992 14360 350 303 22
18:03:21.150117 713.779999999 1496 1992 14296 505 430 -17
18:03:21.165539 713.789999999 1432 2136 14260 544 464 -18
18:03:21.173732 713.799999999 1508 1952 14340 600 478 -44
18:03:21.194210 713.809999999 1444 2056 14388 653 533 -22
18:03:21.209615 713.819999999 1528 1980 13916 71 271 52
18:03:21.212304 713.829999999 1504 1920 14072 458 368 4
18:03:21.213923 713.839999999 1416 2092 14224 561 318 -26
18:03:21.227699 713.849999999 1520 2064 14248 591 295 -19
18:03:21.242123 713.859999999 1436 2124 14176 812 391 -36
18:03:21.247656 713.869999999 1444 2104 14268 749 351 -34
18:03:21.273457 713.879999999 1492 2216 14312 675 306 -29
18:03:21.274694 713.889999999 1448 2172 14192 528 248 -20
18:03:21.298394 713.899999999 1572 2208 14232 568 312 -26
18:03:21.306357 713.909999999 1588 2248 14268 762 377 -72
18:03:21.306540 713.919999999 1628 2184 14244 849 433 -58
18:03:21.307506 713.929999999 1476 2180 14260 963 480 -87
18:03:21.334230 713.939999999 1488 2316 14300 1014 458 -64
18:03:21.343275 713.949999999 1512 2216 14160 1032 469 -33
18:03:21.343388 713.959999999 1508 2240 14276 1035 463 -70
18:03:21.345031 713.969999999 1416 2256 14260 1234 426 -43
18:03:21.352771 713.979999999 1428 2252 14180 1369 509 -58
18:03:21.378030 713.989999999 1332 2396 14148 1317 523 -75
18:03:21.385359 713.999999999 1376 2484 14148 1323 619 -80
18:03:21.386406 714.009999999 1324 2456 14144 1429 603 -101
18:03:21.408106 714.019999999 1444 2428 14008 1539 524 -92
18:03:21.423796 714.029999999 1512 2536 14044 1596 509 -85
18:03:21.423958 714.039999999 1412 2492 14184 1631 516 -84
18:03:21.427722 714.049999999 1368 2632 14192 1562 564 -55
18:03:21.443127 714.059999999 1388 2732 14284 1513 622 -56
18:03:21.454365 714.069999999 1420 2792 14208 1406 620 -37
18:03:21.469557 714.079999999 1296 2832 14052 1326 580 -46
18:03:21.482445 714.089999999 1360 2900 14200 1274 549 -66
18:03:21.482635 714.099999999 1324 2820 14192 1154 493 -52
18:03:21.487631 714.109999999 1380 2816 14296 1162 472 -52
18:03:21.510590 714.119999999 1332 2736 14176 1256 483 -42
18:03:21.510764 714.129999999 1340 2904 14108 1310 474 -61
18:03:21.527937 714.139999999 1260 2828 14168 1340 425 -48
18:03:21.542516 714.149999999 1232 2896 13996 1426 480 -75
18:03:21.544245 714.159999999 1292 3032 14332 1505 567 -73
18:03:21.564450 714.169999999 1304 2960 14228 1553 667 -105
18:03:21.564578 714.179999999 1340 3072 14080 1594 629 -116
18:03:21.570321 714.189999999 1292 3156 14080 1593 684 -113
18:03:21.593251 714.199999999 1204 3172 14128 1488 654 -132
18:03:21.605124 714.209999999 1256 3196 14168 1377 628 -118
18:03:21.613112 714.219999999 1264 3236 14024 1278 567 -63
18:03:21.613261 714.229999999 1268 3248 14076 1256 516 -108
18:03:21.630035 714.239999999 1264 3232 14060 1152 497 -59
18:03:21.641619 714.249999999 1264 3256 14092 1124 485 -92
18:03:21.645533 714.259999999 1248 3292 14132 1145 469 -79
18:03:21.662008 714.269999999 1200 3348 14032 1109 482 -77
18:03:21.675753 714.279999999 1120 3356 13980 1111 502 -73
18:03:21.684930 714.289999999 1116 3388 14004 1122 541 -106
18:03:21.685955 714.299999999 1228 3476 14088 1104 566 -72
18:03:21.697678 714.309999999 1220 3520 14052 1061 535 -80
18:03:21.709139 714.319999999 1240 3536 13972 1004 567 -78
18:03:21.720779 714.329999999 1160 3484 14028 1061 529 -63
18:03:21.745958 714.339999999 1208 3496 14072 965 558 -81
18:03:21.746124 714.349999999 1256 3480 13924 1012 538 -96
18:03:21.746431 714.359999999 1176 3596 14012 957 506 -71
18:03:21.763641 714.369999999 1096 3596 13880 833 488 -91
18:03:21.776683 714.379999999 1124 3552 14040 804 421 -85
18:03:21.780037 714.389999999 1208 3536 13960 828 399 -31
18:03:21.787700 714.399999999 1172 3664 14076 1100 537 -117
18:03:21.809583 714.409999999 1092 3692 14136 1337 640 -128
18:03:21.834998 714.419999999 1168 3680 14224 1265 628 -154
18:03:21.844370 714.429999999 1124 3836 14032 1115 557 -92
18:03:21.844520 714.439999999 1060 3872 14052 738 443 -69
18:03:21.844631 714.449999999 1104 3800 14120 741 437 -69
18:03:21.847515 714.459999999 1044 3932 14016 841 360 -89
18:03:21.864218 714.469999999 960 3920 13880 374 349 52
18:03:21.880640 714.479999999 1140 3756 13552 -329 61 105
18:03:21.885310 714.489999999 1320 3720 14260 644 538 -91
18:03:21.902722 714.499999999 1068 4088 14464 1652 738 -212
18:03:21.910059 714.509999999 932 4020 13776 426 85 -8
18:03:21.915041 714.519999999 1164 3896 14172 441 302 -21
18:03:21.939871 714.529999999 1040 3920 13528 -91 118 91
18:03:21.947345 714.539999999 1100 3764 13440 -367 -22 96
18:03:21.955314 714.549999999 1196 3780 13692 336 286 1
18:03:21.984183 714.559999999 1120 3924 14016 697 346 -54
18:03:21.984320 714.569999999 1028 4036 14068 956 145 -62
18:03:21.984543 714.579999999 1048 4028 14152 882 142 -47
18:03:22.005199 714.589999999 960 4120 14016 705 214 -8
18:03:22.017019 714.599999999 904 4072 14136 575 256 -1
18:03:22.038404 714.609999999 1128 4192 13968 471 237 -2
18:03:22.050688 714.619999999 1048 4112 14028 451 374 -29
18:03:22.050883 714.629999999 960 4112 13952 469 375 -41
18:03:22.051137 714.639999999 1108 4220 13752 460 427 -61
18:03:22.071946 714.649999999 1084 4068 13952 588 362 -41
18:03:22.084114 714.659999999 948 4152 13828 670 304 -34
18:03:22.085847 714.669999999 1156 4100 14020 749 304 -49
18:03:22.087288 714.679999999 1080 4112 13908 666 318 -42
18:03:22.088281 714.689999999 1008 4180 14000 547 252 -31
18:03:22.106704 714.699999999 1028 4212 13848 465 316 -20
18:03:22.116745 714.709999999 1020 4156 13880 405 356 -20
18:03:22.117654 714.719999999 1008 4144 13928 324 319 10
18:03:22.143368 714.729999999 1044 4272 13844 251 299 -33
18:03:22.146369 714.739999999 968 4188 13996 198 282 1
18:03:22.147609 714.749999999 992 4240 13940 150 297 -14
18:03:22.164941 714.759999999 1008 4220 13824 160 311 -23
18:03:22.178834 714.769999999 1144 4292 14000 195 277 -12
18:03:22.203428 714.779999999 1028 4264 13936 289 81 -11
18:03:22.215087 714.789999999 1012 4256 13872 424 254 -30
18:03:22.234134 714.799999999 960 4364 13732 296 574 -31
18:03:22.243923 714.809999999 988 4308 14008 187 354 -56
18:03:22.244084 714.819999999 1096 4328 13712 519 439 -64
18:03:22.244206 714.829999999 940 4416 13796 72 359 -69
18:03:22.255070 714.839999999 964 4328 14276 448 643 -106
18:03:22.256922 714.849999999 940 4428 13488 -95 196 44
18:03:22.305810 714.859999999 1096 4136 13580 -375 238 39
18:03:22.322402 714.869999999 1060 4340 13852 299 454 -95
18:03:22.323062 714.879999999 1044 4300 13924 152 349 -55
18:03:22.339416 714.889999999 1020 4260 13916 22 269 -19
18:03:22.348075 714.899999999 1004 4396 13884 -140 251 15
18:03:22.348566 714.909999999 1020 4312 13916 -127 205 13
18:03:22.355962 714.919999999 1036 4328 13892 -76 161 -12
18:03:22.357954 714.929999999 1088 4368 13976 -98 206 14
18:03:22.380348 714.939999999 1068 4308 13944 -124 162 6
18:03:22.380580 714.949999999 1052 4476 14092 -68 187 32
18:03:22.380780 714.959999999 1072 4432 13912 -93 163 5
18:03:22.445882 714.969999999 948 4416 13864 -165 208 -1
18:03:22.448998 714.979999999 1032 4372 13880 -200 199 12
18:03:22.449081 714.989999999 908 4348 13728 -196 211 0
18:03:22.449215 714.999999999 1208 4328 13976 -97 242 2
18:03:22.450445 715.009999999 980 4368 13864 -213 202 8
18:03:22.452934 715.019999999 1060 4432 13816 -362 144 27
18:03:22.478144 715.029999999 976 4356 13828 -443 187 17
18:03:22.481255 715.039999999 1040 4376 13908 -448 238 35
18:03:22.481539 715.049999999 1020 4252 13892 -508 217 17
18:03:22.483017 715.059999999 1072 4292 13924 -637 153 56
18:03:22.509354 715.069999999 1044 4272 13860 -776 169 32
18:03:22.518388 715.079999999 1016 4240 13900 -840 139 77
18:03:22.521691 715.089999999 1028 4236 13988 -992 127 116
18:03:22.536468 715.099999999 1068 4292 13868 -1054 60 116
18:03:22.548510 715.109999999 1060 4200 13988 -1074 -7 126
18:03:22.548763 715.119999999 1112 4328 13836 -1085 4 113
18:03:22.554761 715.129999999 1112 4140 14156 -1105 16 118
18:03:22.557318 715.139999999 936 4188 13984 -1152 44 109
18:03:22.575755 715.149999999 920 4180 13960 -1271 7 116
18:03:22.589251 715.159999999 1076 4156 13864 -1314 96 121
18:03:22.589478 715.169999999 1060 4100 13868 -1395 -59 154
18:03:22.591071 715.179999999 1140 4128 13924 -1466 -57 169
18:03:22.614749 715.189999999 1076 4024 13944 -1370 37 135
18:03:22.618130 715.199999999 1152 3996 14008 -1334 22 131
18:03:22.623095 715.209999999 1004 3892 13920 -1446 -40 152
18:03:22.637500 715.219999999 1068 3944 14036 -1553 -19 142
18:03:22.640861 715.229999999 1144 3948 13916 -1526 -18 159
18:03:22.662452 715.239999999 1012 3856 14144 -1525 -32 155
18:03:22.671409 715.249999999 1112 3908 13880 -1582 -19 153
18:03:22.672626 715.259999999 1124 3812 13948 -1611 -14 169
18:03:22.697196 715.269999999 1084 3836 14184 -1588 -8 129
18:03:22.786562 715.279999999 1096 3788 14044 -1639 -44 116
18:03:22.797770 715.289999999 1076 3744 13964 -1788 -103 119
18:03:22.799079 715.299999999 1176 3772 14024 -1828 -109 163
18:03:22.800330 715.309999999 1232 3644 13984 -1775 -84 156
18:03:22.801577 715.319999999 1096 3692 14100 -1846 -97 165
18:03:22.802700 715.329999999 1180 3548 14040 -1942 -147 175
18:03:22.805827 715.339999999 1104 3596 13916 -1826 -172 177
18:03:22.809333 715.349999999 1232 3548 14052 -1668 -149 169
18:03:22.811392 715.359999999 1168 3460 14180 -1607 -73 143
18:03:22.812390 715.369999999 1028 3484 14100 -1581 -72 160
18:03:22.815076 715.379999999 1224 3428 14104 -1701 -132 168
18:03:22.836327 715.389999999 1188 3388 13960 -1746 -97 154
18:03:22.836519 715.399999999 1232 3308 14020 -1663 -108 138
18:03:22.859418 715.409999999 1292 3212 14252 -1647 -107 165
18:03:22.864935 715.419999999 1208 3264 14104 -1637 -83 83
18:03:22.865132 715.429999999 1312 3208 14032 -1607 -103 129
18:03:22.865407 715.439999999 1196 3140 14172 -1595 -84 88
18:03:22.867721 715.449999999 1152 3112 14264 -1592 -93 116
18:03:22.875202 715.459999999 1216 3072 14036 -1578 -102 136
18:03:22.890321 715.469999999 1160 3024 14072 -1566 -72 104
18:03:22.964255 715.479999999 1316 3080 14200 -1509 -42 84
18:03:22.965105 715.489999999 1144 3116 14028 -1551 -98 95
18:03:22.966336 715.499999999 1248 2968 14212 -1689 -158 102
18:03:22.967584 715.509999999 1316 2944 13968 -1741 -205 119
18:03:22.970205 715.519999999 1284 2932 14096 -1692 -241 117
18:03:22.972213 715.529999999 1392 2764 14208 -1375 -38 76
18:03:22.993656 715.539999999 1244 2792 14204 -1123 116 25
18:03:23.001261 715.549999999 1220 2940 14412 -1169 57 30
18:03:23.001497 715.559999999 1324 2852 14140 -1361 -73 82
18:03:23.012583 715.569999999 1324 2680 14076 -1425 -126 93
18:03:23.032309 715.579999999 1308 2604 14004 -1329 -138 62
18:03:23.087927 715.589999999 1356 2632 14344 -1085 2 59
18:03:23.101383 715.599999999 1404 2824 14364 -1308 128 108
18:03:23.101664 715.609999999 1256 2836 13764 -2213 -112 158
18:03:23.103070 715.619999999 1644 2460 14080 -2047 -176 112
18:03:23.103312 715.629999999 1516 2576 14580 -403 279 -53
18:03:23.103545 715.639999999 1268 2760 13856 -1081 -395 75
18:03:23.103773 715.649999999 1580 2480 14028 -1650 -485 133
18:03:23.103997 715.659999999 1356 2420 14296 -836 195 17
18:03:23.110147 715.669999999 1224 2544 13704 -1894 -554 192
18:03:23.113153 715.679999999 1496 2336 13984 -1416 -136 120
18:03:23.131880 715.689999999 1484 2376 14352 -541 305 -18
18:03:23.131993 715.699999999 1300 2452 14744 -496 228 -34
18:03:23.162036 715.709999999 1284 2432 14512 -798 86 50
18:03:23.170693 715.719999999 1328 2616 14384 -1056 41 98
18:03:23.170910 715.729999999 1372 2452 14464 -1183 108 66
18:03:23.171199 715.739999999 1352 2484 14248 -1339 13 97
18:03:23.191163 715.749999999 1432 2396 14224 -1412 -101 97
18:03:23.207271 715.759999999 1388 2324 14100 -1373 18 87
18:03:23.209564 715.769999999 1424 2164 14028 -1299 -28 74
18:03:23.214103 715.779999999 1404 2132 13924 -1166 -13 88
18:03:23.237922 715.789999999 1520 2184 14140 -788 0 79
18:03:23.305293 715.799999999 1432 2144 14328 -527 110 28
18:03:23.307843 715.809999999 1500 2152 14276 -431 65 28
18:03:23.309101 715.819999999 1464 2160 14336 -423 122 16
18:03:23.310309 715.829999999 1604 2228 14232 -506 130 11
18:03:23.311790 715.839999999 1432 2020 14192 -523 134 23
18:03:23.313217 715.849999999 1440 2068 14320 -512 138 39
18:03:23.315598 715.859999999 1552 2088 14272 -541 98 26
18:03:23.336487 715.869999999 1524 2156 14068 -557 99 38
18:03:23.336650 715.879999999 1480 2112 14212 -554 116 46
18:03:23.336793 715.889999999 1520 2188 14280 -432 133 50
18:03:23.339941 715.899999999 1544 2056 14224 -264 181 24
18:03:23.348042 715.909999999 1476 2152 14164 -70 167 40
18:03:23.372840 715.919999999 1300 2236 14168 163 286 23
18:03:23.390802 715.929999999 1524 2240 14272 403 383 -29
18:03:23.406737 715.939999999 1508 2228 14292 502 402 -19
18:03:23.406872 715.949999999 1504 2224 14296 569 367 12
18:03:23.410612 715.959999999 1456 2120 14348 877 608 -26
18:03:23.413709 715.969999999 1492 2208 13980 307 298 23
18:03:23.437066 715.979999999 1536 2092 14056 489 368 -8
18:03:23.459562 715.989999999 1456 2196 14056 794 381 6
18:03:23.467770 715.999999999 1404 2168 14256 875 277 -35
18:03:23.467945 716.009999999 1428 2248 14280 1247 387 -65
18:03:23.469211 716.019999999 1540 2320 14112 1204 388 -78
18:03:23.494380 716.029999999 1448 2328 14280 1221 358 -40
18:03:23.511040 716.039999999 1416 2404 14176 1166 292 -15
18:03:23.511997 716.049999999 1484 2380 14248 1046 337 -32
18:03:23.513026 716.059999999 1396 2424 14208 1229 379 -55
18:03:23.530432 716.069999999 1496 2364 14216 1332 400 -67
18:03:23.537968 716.079999999 1464 2524 14320 1443 524 -54
18:03:23.538133 716.089999999 1384 2548 14204 1551 546 -69
18:03:23.542594 716.099999999 1380 2520 14120 1389 460 -67
18:03:23.567548 716.109999999 1412 2508 14188 1416 527 -55
18:03:23.569338 716.119999999 1436 2584 14196 1519 564 -64
18:03:23.582837 716.129999999 1456 2604 14168 1641 631 -69
18:03:23.602683 716.139999999 1460 2708 14128 1592 610 -82
18:03:23.604583 716.149999999 1336 2716 14164 1427 581 -100
18:03:23.605904 716.159999999 1348 2724 14248 1612 641 -113
18:03:23.628043 716.169999999 1268 2768 14156 1717 659 -114
18:03:23.635196 716.179999999 1312 2828 14216 1749 665 -125
18:03:23.640128 716.189999999 1336 2964 14004 1616 629 -70
18:03:23.647965 716.199999999 1300 2896 14080 1565 626 -77
18:03:23.668487 716.209999999 1236 2984 14032 1645 678 -116
18:03:23.668686 716.219999999 1296 3068 14128 1735 659 -91
18:03:23.677681 716.229999999 1300 3128 14264 1721 713 -120
18:03:23.692267 716.239999999 1284 3204 14100 1647 683 -98
18:03:23.730969 716.249999999 1288 3200 14080 1704 688 -119
18:03:23.739082 716.259999999 1292 3216 14200 1723 647 -125
18:03:23.739328 716.269999999 1360 3288 14116 1698 682 -137
18:03:23.739561 716.279999999 1240 3324 14132 1608 650 -118
18:03:23.747436 716.289999999 1240 3352 14000 1554 634 -139
18:03:23.749054 716.299999999 1172 3428 14116 1506 568 -110
18:03:23.770013 716.309999999 1204 3480 13956 1502 572 -112
18:03:23.797034 716.319999999 1248 3368 14116 1384 616 -124
18:03:23.809114 716.329999999 1204 3424 14156 1280 628 -144
18:03:23.811098 716.339999999 1300 3432 14028 1212 613 -102
18:03:23.861265 716.349999999 1180 3448 13996 1182 582 -120
18:03:23.871980 716.359999999 1352 3496 14148 1082 615 -108
18:03:23.872142 716.369999999 1128 3492 13984 1036 539 -112
18:03:23.872288 716.379999999 1184 3532 14076 1006 516 -122
18:03:23.872451 716.389999999 1128 3528 14076 1022 499 -100
18:03:23.872585 716.399999999 1180 3656 14060 962 494 -100
18:03:23.892821 716.409999999 1192 3564 13924 975 486 -117
18:03:23.906483 716.419999999 1168 3568 14096 995 506 -89
18:03:23.906631 716.429999999 1092 3668 13952 996 487 -104
18:03:23.927991 716.439999999 1100 3780 14124 916 521 -112
18:03:23.937334 716.449999999 1140 3776 14016 989 519 -83
18:03:23.948204 716.459999999 1196 3804 14104 970 488 -102
18:03:23.949237 716.469999999 1192 3796 14072 945 587 -54
18:03:23.950431 716.479999999 1044 3852 14048 857 488 -70
18:03:23.970688 716.489999999 1140 3860 13912 869 437 -103
18:03:23.970922 716.499999999 1164 3888 13880 849 486 -42
18:03:23.971080 716.509999999 992 3852 14060 803 503 -84
18:03:23.977576 716.519999999 1040 4012 13896 810 477 -87
18:03:23.985197 716.529999999 1156 3976 13904 807 495 -96
18:03:24.005768 716.539999999 1164 3996 14076 764 510 -86
18:03:24.006062 716.549999999 1092 4000 13956 720 493 -100
18:03:24.024742 716.559999999 996 4040 13980 603 456 -75
18:03:24.043979 716.569999999 1088 4040 14032 429 377 -55
18:03:24.044094 716.579999999 944 3996 13956 284 367 -25
18:03:24.044965 716.589999999 984 3976 13836 338 355 -88
