17:59:00.007465, 200.175, 4215
17:59:00.007503, 200.1775, 4192
17:59:00.007519, 200.18, 4200
17:59:00.007534, 200.1825, 4177
17:59:00.007547, 200.185, 4083
17:59:00.036358, 200.1875, 4198
17:59:00.036418, 200.19, 4191
17:59:00.036442, 200.1925, 4176
17:59:00.036501, 200.195, 4181
17:59:00.036810, 200.1975, 4169
17:59:00.036832, 200.2, 4171
17:59:00.036848, 200.2025, 4094
17:59:00.036863, 200.205, 4195
17:59:00.037122, 200.2075, 4180
17:59:00.037141, 200.21, 4181
17:59:00.037156, 200.2125, 4154
17:59:00.037170, 200.215, 4194
17:59:00.043189, 200.2175, 4181
17:59:00.043273, 200.22, 4101
17:59:00.043299, 200.2225, 4187
17:59:00.043323, 200.225, 4190
17:59:00.065239, 200.2275, 4187
17:59:00.065322, 200.23, 4181
17:59:00.065352, 200.2325, 4178
17:59:00.065377, 200.235, 4161
17:59:00.068485, 200.2375, 4106
17:59:00.068508, 200.24, 4164
17:59:00.068523, 200.2425, 4153
17:59:00.068537, 200.245, 4164
17:59:00.078007, 200.2475, 4138
17:59:00.078068, 200.25, 4145
17:59:00.078100, 200.2525, 4160
17:59:00.078136, 200.255, 4069
17:59:00.100167, 200.2575, 4181
17:59:00.100288, 200.26, 4175
17:59:00.100334, 200.2625, 4169
17:59:00.100364, 200.265, 4130
17:59:00.100905, 200.2675, 4156
17:59:00.100944, 200.27, 4151
17:59:00.100973, 200.2725, 4060
17:59:00.100999, 200.275, 4152
17:59:00.103541, 200.2775, 4130
17:59:00.103573, 200.28, 4132
17:59:00.103592, 200.2825, 4115
17:59:00.103609, 200.285, 4120
17:59:00.131549, 200.2875, 4106
17:59:00.131640, 200.29, 4029
17:59:00.131677, 200.2925, 4125
17:59:00.131709, 200.295, 4127
17:59:00.131780, 200.2975, 4115
17:59:00.132315, 200.3, 4117
17:59:00.132352, 200.3025, 4127
17:59:00.132379, 200.305, 4124
17:59:00.132404, 200.3075, 4059
17:59:00.139192, 200.31, 4158
17:59:00.139296, 200.3125, 4181
17:59:00.139357, 200.315, 4175
17:59:00.139402, 200.3175, 4146
17:59:00.164153, 200.32, 4171
17:59:00.164226, 200.3225, 4189
17:59:00.164258, 200.325, 4091
17:59:00.164284, 200.3275, 4191
17:59:00.164785, 200.33, 4215
17:59:00.164823, 200.3325, 4213
17:59:00.164854, 200.335, 4208
17:59:00.164874, 200.3375, 4224
17:59:00.165223, 200.34, 4232
17:59:00.165249, 200.3425, 4150
17:59:00.165269, 200.345, 4221
17:59:00.165288, 200.3475, 4189
17:59:00.195724, 200.35, 4200
17:59:00.195823, 200.3525, 4207
17:59:00.195853, 200.355, 4231
17:59:00.195875, 200.3575, 4198
17:59:00.196219, 200.36, 4132
17:59:00.196245, 200.3625, 4215
17:59:00.196262, 200.365, 4220
17:59:00.196278, 200.3675, 4223
17:59:00.199980, 200.37, 4203
17:59:00.200051, 200.3725, 4223
17:59:00.200077, 200.375, 4196
17:59:00.200101, 200.3775, 4097
17:59:00.200124, 200.38, 4203
17:59:00.208801, 200.3825, 4211
17:59:00.208865, 200.385, 4188
17:59:00.208899, 200.3875, 4148
17:59:00.231536, 200.39, 4184
17:59:00.231747, 200.3925, 4179
17:59:00.231834, 200.395, 4115
17:59:00.231881, 200.3975, 4204
17:59:00.231928, 200.4, 4203
17:59:00.232578, 200.4025, 4184
17:59:00.232627, 200.405, 4182
17:59:00.232657, 200.4075, 4207
17:59:00.232686, 200.41, 4207
17:59:00.244054, 200.4125, 4125
17:59:00.244127, 200.415, 4214
17:59:00.244149, 200.4175, 4212
17:59:00.244167, 200.42, 4203
17:59:00.265600, 200.4225, 4211
17:59:00.265712, 200.425, 4208
17:59:00.265749, 200.4275, 4218
17:59:00.265778, 200.43, 4124
17:59:00.266260, 200.4325, 4221
17:59:00.266292, 200.435, 4197
17:59:00.266313, 200.4375, 4189
17:59:00.266334, 200.44, 4193
17:59:00.269878, 200.4425, 4208
17:59:00.269911, 200.445, 4205
17:59:00.269934, 200.4475, 4133
17:59:00.269957, 200.45, 4210
17:59:00.298009, 200.4525, 4226
17:59:00.298136, 200.455, 4224
17:59:00.298238, 200.4575, 4187
17:59:00.298277, 200.46, 4201
17:59:00.298745, 200.4625, 4192
17:59:00.298776, 200.465, 4109
17:59:00.298797, 200.4675, 4193
17:59:00.298817, 200.47, 4198
17:59:00.305256, 200.4725, 4172
17:59:00.305338, 200.475, 4175
17:59:00.305393, 200.4775, 4190
17:59:00.305444, 200.48, 4175
17:59:00.305561, 200.4825, 4110
17:59:00.329491, 200.485, 4192
17:59:00.329603, 200.4875, 4195
17:59:00.329628, 200.49, 4206
17:59:00.329649, 200.4925, 4177
17:59:00.329964, 200.495, 4197
17:59:00.329993, 200.4975, 4170
17:59:00.330008, 200.5, 4099
17:59:00.330022, 200.5025, 4196
17:59:00.331161, 200.505, 4190
17:59:00.331221, 200.5075, 4195
17:59:00.331245, 200.51, 4183
17:59:00.331267, 200.5125, 4221
17:59:00.339892, 200.515, 4168
17:59:00.339941, 200.5175, 4086
17:59:00.339964, 200.52, 4177
17:59:00.339986, 200.5225, 4159
17:59:00.363288, 200.525, 4177
17:59:00.363380, 200.5275, 4186
17:59:00.363414, 200.53, 4217
17:59:00.363445, 200.5325, 4186
17:59:00.366259, 200.535, 4099
17:59:00.366305, 200.5375, 4192
17:59:00.366328, 200.54, 4203
17:59:00.366350, 200.5425, 4194
17:59:00.375415, 200.545, 4174
17:59:00.375520, 200.5475, 4187
17:59:00.375574, 200.55, 4178
17:59:00.375626, 200.5525, 4090
17:59:00.375677, 200.555, 4168
17:59:00.400298, 200.5575, 4180
17:59:00.400562, 200.56, 4188
17:59:00.400627, 200.5625, 4182
17:59:00.401667, 200.565, 4185
17:59:00.401787, 200.5675, 4204
17:59:00.401842, 200.57, 4128
17:59:00.401893, 200.5725, 4211
17:59:00.401944, 200.575, 4186
17:59:00.409960, 200.5775, 4174
17:59:00.409999, 200.58, 4163
17:59:00.410025, 200.5825, 4190
17:59:00.410048, 200.585, 4153
17:59:00.442662, 200.5875, 4092
17:59:00.442716, 200.59, 4174
17:59:00.442752, 200.5925, 4165
17:59:00.442782, 200.595, 4164
17:59:00.443086, 200.5975, 4141
17:59:00.443108, 200.6, 4165
17:59:00.443122, 200.6025, 4194
17:59:00.443136, 200.605, 4086
17:59:00.443378, 200.6075, 4208
17:59:00.443395, 200.61, 4202
17:59:00.443409, 200.6125, 4193
17:59:00.443423, 200.615, 4148
17:59:00.445477, 200.6175, 4111
17:59:00.445524, 200.62, 4130
17:59:00.445544, 200.6225, 4070
17:59:00.445577, 200.625, 4146
17:59:00.472564, 200.6275, 4165
17:59:00.472631, 200.63, 4169
17:59:00.472663, 200.6325, 4148
17:59:00.472748, 200.635, 4172
17:59:00.473345, 200.6375, 4169
17:59:00.473391, 200.64, 4077
17:59:00.473424, 200.6425, 4163
17:59:00.473455, 200.645, 4181
17:59:00.480280, 200.6475, 4186
17:59:00.480349, 200.65, 4163
17:59:00.480372, 200.6525, 4171
17:59:00.480390, 200.655, 4157
17:59:00.481302, 200.6575, 4062
17:59:00.502642, 200.66, 4163
17:59:00.502731, 200.6625, 4180
17:59:00.502765, 200.665, 4164
17:59:00.502794, 200.6675, 4134
17:59:00.503472, 200.67, 4135
17:59:00.503528, 200.6725, 4131
17:59:00.503568, 200.675, 4065
17:59:00.506531, 200.6775, 4160
17:59:00.506593, 200.68, 4169
17:59:00.506633, 200.6825, 4167
17:59:00.506670, 200.685, 4148
17:59:00.506707, 200.6875, 4155
17:59:00.535358, 200.69, 4142
17:59:00.535473, 200.6925, 4054
17:59:00.535538, 200.695, 4156
17:59:00.535565, 200.6975, 4148
17:59:00.536045, 200.7, 4138
17:59:00.536078, 200.7025, 4126
17:59:00.536103, 200.705, 4158
17:59:00.536126, 200.7075, 4159
17:59:00.541187, 200.71, 4091
17:59:00.541225, 200.7125, 4158
17:59:00.541251, 200.715, 4186
17:59:00.541275, 200.7175, 4168
17:59:00.567583, 200.72, 4166
17:59:00.567711, 200.7225, 4164
17:59:00.567812, 200.725, 4159
17:59:00.567853, 200.7275, 4088
17:59:00.567905, 200.73, 4150
17:59:00.568501, 200.7325, 4147
17:59:00.568542, 200.735, 4158
17:59:00.568573, 200.7375, 4127
17:59:00.568602, 200.74, 4139
17:59:00.569128, 200.7425, 4123
17:59:00.569167, 200.745, 4068
17:59:00.569197, 200.7475, 4169
17:59:00.612411, 200.75, 4119
17:59:00.612508, 200.7525, 4143
17:59:00.612534, 200.755, 4100
17:59:00.612554, 200.7575, 4118
17:59:00.612573, 200.76, 4132
17:59:00.613945, 200.7625, 4042
17:59:00.614045, 200.765, 4155
17:59:00.614090, 200.7675, 4144
17:59:00.614131, 200.77, 4159
17:59:00.615408, 200.7725, 4144
17:59:00.615453, 200.775, 4167
17:59:00.615479, 200.7775, 4162
17:59:00.615503, 200.78, 4056
17:59:00.616312, 200.7825, 4161
17:59:00.616344, 200.785, 4138
17:59:00.616368, 200.7875, 4145
17:59:00.616394, 200.79, 4151
17:59:00.635900, 200.7925, 4157
17:59:00.635988, 200.795, 4157
17:59:00.636016, 200.7975, 4073
17:59:00.636037, 200.8, 4169
17:59:00.636937, 200.8025, 4173
17:59:00.636975, 200.805, 4140
17:59:00.636996, 200.8075, 4134
17:59:00.637054, 200.81, 4160
17:59:00.655352, 200.8125, 4141
17:59:00.655414, 200.815, 4049
17:59:00.655436, 200.8175, 4165
17:59:00.655453, 200.82, 4185
17:59:00.655777, 200.8225, 4156
17:59:00.655802, 200.825, 4181
17:59:00.655816, 200.8275, 4189
17:59:00.655830, 200.83, 4172
17:59:00.655843, 200.8325, 4089
17:59:00.664129, 200.835, 4178
17:59:00.664259, 200.8375, 4170
17:59:00.664301, 200.84, 4167
17:59:00.664330, 200.8425, 4143
17:59:00.685522, 200.845, 4184
17:59:00.685615, 200.8475, 4196
17:59:00.685647, 200.85, 4101
17:59:00.685674, 200.8525, 4159
17:59:00.686163, 200.855, 4149
17:59:00.686193, 200.8575, 4179
17:59:00.686214, 200.86, 4172
17:59:00.686234, 200.8625, 4163
17:59:00.690383, 200.865, 4160
17:59:00.690465, 200.8675, 4057
17:59:00.690519, 200.87, 4152
17:59:00.690571, 200.8725, 4151
17:59:00.714771, 200.875, 4148
17:59:00.714881, 200.8775, 4146
17:59:00.714924, 200.88, 4148
17:59:00.714952, 200.8825, 4124
17:59:00.716152, 200.885, 4059
17:59:00.716207, 200.8875, 4165
17:59:00.716231, 200.89, 4151
17:59:00.716253, 200.8925, 4144
17:59:00.725290, 200.895, 4138
17:59:00.725376, 200.8975, 4162
17:59:00.725425, 200.9, 4148
17:59:00.725470, 200.9025, 4080
17:59:00.748234, 200.905, 4174
17:59:00.748344, 200.9075, 4163
17:59:00.748383, 200.91, 4167
17:59:00.748416, 200.9125, 4173
17:59:00.748987, 200.915, 4177
17:59:00.749036, 200.9175, 4194
17:59:00.749060, 200.92, 4079
17:59:00.749085, 200.9225, 4168
17:59:00.751197, 200.925, 4181
17:59:00.751234, 200.9275, 4175
17:59:00.751250, 200.93, 4152
17:59:00.751264, 200.9325, 4188
17:59:00.785544, 200.935, 4187
17:59:00.785621, 200.9375, 4098
17:59:00.785653, 200.94, 4186
17:59:00.785678, 200.9425, 4162
17:59:00.786129, 200.945, 4148
17:59:00.786158, 200.9475, 4162
17:59:00.786178, 200.95, 4147
17:59:00.786196, 200.9525, 4142
17:59:00.786215, 200.955, 4065
17:59:00.786543, 200.9575, 4162
17:59:00.786567, 200.96, 4155
17:59:00.786586, 200.9625, 4150
17:59:00.786604, 200.965, 4152
17:59:00.795283, 200.9675, 4145
17:59:00.795385, 200.97, 4148
17:59:00.795443, 200.9725, 4062
17:59:00.795496, 200.975, 4162
17:59:00.819133, 200.9775, 4161
17:59:00.819212, 200.98, 4142
17:59:00.819245, 200.9825, 4134
17:59:00.819275, 200.985, 4152
17:59:00.819909, 200.9875, 4144
17:59:00.819952, 200.99, 4052
17:59:00.819983, 200.9925, 4146
17:59:00.820012, 200.995, 4134
17:59:00.830365, 200.9975, 4159
17:59:00.830414, 201.0, 4153
17:59:00.830459, 201.0025, 4192
17:59:00.830480, 201.005, 4178
17:59:00.854202, 201.0075, 4089
17:59:00.854315, 201.01, 4151
17:59:00.854377, 201.0125, 4123
17:59:00.854423, 201.015, 4120
17:59:00.855092, 201.0175, 4119
17:59:00.855162, 201.02, 4170
17:59:00.855211, 201.0225, 4181
17:59:00.855255, 201.025, 4093
17:59:00.856649, 201.0275, 4175
17:59:00.856707, 201.03, 4175
17:59:00.856755, 201.0325, 4144
17:59:00.856800, 201.035, 4134
17:59:00.882330, 201.0375, 4185
17:59:00.882459, 201.04, 4192
17:59:00.882502, 201.0425, 4105
17:59:00.882524, 201.045, 4187
17:59:00.882555, 201.0475, 4171
17:59:00.882952, 201.05, 4166
17:59:00.882993, 201.0525, 4140
17:59:00.883013, 201.055, 4146
17:59:00.918376, 201.0575, 4131
17:59:00.918471, 201.06, 4025
17:59:00.918496, 201.0625, 4110
17:59:00.918516, 201.065, 4117
17:59:00.918537, 201.0675, 4126
17:59:00.918935, 201.07, 4147
17:59:00.918958, 201.0725, 4171
17:59:00.918973, 201.075, 4194
17:59:00.918987, 201.0775, 4106
17:59:00.919230, 201.08, 4182
17:59:00.919249, 201.0825, 4179
17:59:00.919263, 201.085, 4186
17:59:00.919276, 201.0875, 4097
17:59:00.919515, 201.09, 4205
17:59:00.919532, 201.0925, 4210
17:59:00.919546, 201.095, 4116
17:59:00.919560, 201.0975, 4218
17:59:00.926745, 201.1, 4209
17:59:00.926832, 201.1025, 4187
17:59:00.926911, 201.105, 4176
17:59:00.926963, 201.1075, 4200
17:59:00.952676, 201.11, 4199
17:59:00.952748, 201.1125, 4103
17:59:00.952773, 201.115, 4202
17:59:00.952793, 201.1175, 4192
17:59:00.953161, 201.12, 4200
17:59:00.953184, 201.1225, 4176
17:59:00.953200, 201.125, 4202
17:59:00.953215, 201.1275, 4188
17:59:00.953230, 201.13, 4105
17:59:00.962013, 201.1325, 4209
17:59:00.962101, 201.135, 4208
17:59:00.962222, 201.1375, 4214
17:59:00.962281, 201.14, 4208
17:59:00.987278, 201.1425, 4207
17:59:00.987347, 201.145, 4201
17:59:00.987381, 201.1475, 4116
17:59:00.987413, 201.15, 4204
17:59:00.987933, 201.1525, 4280
17:59:00.987967, 201.155, 4358
17:59:00.987991, 201.1575, 4399
17:59:00.988013, 201.16, 4408
17:59:00.996565, 201.1625, 4442
17:59:00.996635, 201.165, 4364
17:59:00.996680, 201.1675, 4421
17:59:00.996721, 201.17, 4240
17:59:01.020690, 201.1725, 4009
17:59:01.020772, 201.175, 3745
17:59:01.020830, 201.1775, 3420
17:59:01.020862, 201.18, 3052
17:59:01.020935, 201.1825, 2600
17:59:01.021456, 201.185, 2184
17:59:01.021492, 201.1875, 1811
17:59:01.021519, 201.19, 1742
17:59:01.022541, 201.1925, 1799
17:59:01.022575, 201.195, 2208
17:59:01.022601, 201.1975, 2977
17:59:01.022627, 201.2, 3733
17:59:01.022652, 201.2025, 4453
17:59:01.031720, 201.205, 4794
17:59:01.031778, 201.2075, 4852
17:59:01.031819, 201.21, 4757
17:59:01.031852, 201.2125, 4643
17:59:01.051368, 201.215, 4560
17:59:01.051490, 201.2175, 4431
17:59:01.051531, 201.22, 4507
17:59:01.051564, 201.2225, 4500
17:59:01.057968, 201.225, 4496
17:59:01.058051, 201.2275, 4465
17:59:01.058108, 201.23, 4498
17:59:01.058161, 201.2325, 4489
17:59:01.083659, 201.235, 4416
17:59:01.083758, 201.2375, 4500
17:59:01.083787, 201.24, 4500
17:59:01.083808, 201.2425, 4494
17:59:01.084155, 201.245, 4479
17:59:01.084189, 201.2475, 4468
17:59:01.084205, 201.25, 4489
17:59:01.084220, 201.2525, 4395
17:59:01.084478, 201.255, 4485
17:59:01.084500, 201.2575, 4464
17:59:01.084515, 201.26, 4444
17:59:01.084530, 201.2625, 4434
17:59:01.092259, 201.265, 4460
17:59:01.092299, 201.2675, 4418
17:59:01.092315, 201.27, 4331
17:59:01.092330, 201.2725, 4401
17:59:01.120127, 201.275, 4380
17:59:01.120189, 201.2775, 4374
17:59:01.120211, 201.28, 4374
17:59:01.120231, 201.2825, 4367
17:59:01.120251, 201.285, 4343
17:59:01.120651, 201.2875, 4253
17:59:01.120678, 201.29, 4329
17:59:01.120693, 201.2925, 4326
17:59:01.120708, 201.295, 4334
17:59:01.127560, 201.2975, 4306
17:59:01.127669, 201.3, 4315
17:59:01.127758, 201.3025, 4307
17:59:01.127815, 201.305, 4220
17:59:01.153951, 201.3075, 4294
17:59:01.154038, 201.31, 4266
17:59:01.154090, 201.3125, 4279
17:59:01.154142, 201.315, 4273
17:59:01.154696, 201.3175, 4280
17:59:01.154733, 201.32, 4264
17:59:01.154757, 201.3225, 4180
17:59:01.154779, 201.325, 4284
17:59:01.155327, 201.3275, 4279
17:59:01.155371, 201.33, 4272
17:59:01.155401, 201.3325, 4246
17:59:01.155430, 201.335, 4264
17:59:01.184383, 201.3375, 4257
17:59:01.184506, 201.34, 4162
17:59:01.184552, 201.3425, 4254
17:59:01.184592, 201.345, 4235
17:59:01.185289, 201.3475, 4246
17:59:01.185344, 201.35, 4220
17:59:01.185373, 201.3525, 4244
17:59:01.185401, 201.355, 4219
17:59:01.185429, 201.3575, 4145
17:59:01.188686, 201.36, 4222
17:59:01.188757, 201.3625, 4228
17:59:01.188787, 201.365, 4211
17:59:01.188814, 201.3675, 4205
17:59:01.197353, 201.37, 4216
17:59:01.197382, 201.3725, 4223
17:59:01.197396, 201.375, 4110
17:59:01.217382, 201.3775, 4202
17:59:01.217543, 201.38, 4208
17:59:01.217604, 201.3825, 4212
17:59:01.217655, 201.385, 4222
17:59:01.217712, 201.3875, 4256
17:59:01.218222, 201.39, 4248
17:59:01.218261, 201.3925, 4144
17:59:01.218277, 201.395, 4224
17:59:01.218293, 201.3975, 4235
17:59:01.232859, 201.4, 4226
17:59:01.232910, 201.4025, 4220
17:59:01.232930, 201.405, 4214
17:59:01.232978, 201.4075, 4217
17:59:01.250878, 201.41, 4166
17:59:01.250964, 201.4125, 4220
17:59:01.251000, 201.415, 4233
17:59:01.251032, 201.4175, 4232
17:59:01.251578, 201.42, 4219
17:59:01.251632, 201.4225, 4226
17:59:01.251658, 201.425, 4210
17:59:01.251681, 201.4275, 4131
17:59:01.258629, 201.43, 4226
17:59:01.258667, 201.4325, 4233
17:59:01.258683, 201.435, 4214
17:59:01.258698, 201.4375, 4220
17:59:01.285865, 201.44, 4221
17:59:01.285942, 201.4425, 4226
17:59:01.285967, 201.445, 4140
17:59:01.285989, 201.4475, 4198
17:59:01.286009, 201.45, 4204
17:59:01.286368, 201.4525, 4210
17:59:01.286396, 201.455, 4209
17:59:01.286411, 201.4575, 4234
17:59:01.286426, 201.46, 4199
17:59:01.293480, 201.4625, 4112
17:59:01.293536, 201.465, 4177
17:59:01.293554, 201.4675, 4175
17:59:01.293569, 201.47, 4163
17:59:01.322389, 201.4725, 4124
17:59:01.322468, 201.475, 4144
17:59:01.322496, 201.4775, 4117
17:59:01.322519, 201.48, 4040
17:59:01.323017, 201.4825, 4127
17:59:01.323063, 201.485, 4110
17:59:01.323093, 201.4875, 4096
17:59:01.323122, 201.49, 4079
17:59:01.323640, 201.4925, 4113
17:59:01.323678, 201.495, 4104
17:59:01.323707, 201.4975, 4037
17:59:01.323736, 201.5, 4119
17:59:01.328472, 201.5025, 4127
17:59:01.328495, 201.505, 4124
17:59:01.328511, 201.5075, 4127
17:59:01.328524, 201.51, 4157
17:59:01.354804, 201.5125, 4138
17:59:01.354913, 201.515, 4055
17:59:01.354975, 201.5175, 4144
17:59:01.355043, 201.52, 4169
17:59:01.356024, 201.5225, 4147
17:59:01.356100, 201.525, 4146
17:59:01.356153, 201.5275, 4166
17:59:01.356204, 201.53, 4177
17:59:01.363473, 201.5325, 4110
17:59:01.363496, 201.535, 4159
17:59:01.363511, 201.5375, 4152
17:59:01.363525, 201.54, 4153
17:59:01.384898, 201.5425, 4154
17:59:01.385006, 201.545, 4177
17:59:01.385066, 201.5475, 4174
17:59:01.385098, 201.55, 4104
17:59:01.385134, 201.5525, 4159
17:59:01.385714, 201.555, 4159
17:59:01.385757, 201.5575, 4188
17:59:01.385782, 201.56, 4177
17:59:01.385806, 201.5625, 4186
17:59:01.389736, 201.565, 4173
17:59:01.389772, 201.5675, 4082
17:59:01.389787, 201.57, 4188
17:59:01.389801, 201.5725, 4219
17:59:01.398674, 201.575, 4196
17:59:01.398717, 201.5775, 4192
17:59:01.398745, 201.58, 4209
17:59:01.423510, 201.5825, 4209
17:59:01.423650, 201.585, 4120
17:59:01.423688, 201.5875, 4180
17:59:01.423717, 201.59, 4168
17:59:01.423745, 201.5925, 4166
17:59:01.424996, 201.595, 4146
17:59:01.425038, 201.5975, 4159
17:59:01.425068, 201.6, 4167
17:59:01.425097, 201.6025, 4071
17:59:01.456052, 201.605, 4163
17:59:01.456137, 201.6075, 4157
17:59:01.456175, 201.61, 4164
17:59:01.456206, 201.6125, 4163
17:59:01.456902, 201.615, 4171
17:59:01.456952, 201.6175, 4177
17:59:01.456988, 201.62, 4119
17:59:01.457022, 201.6225, 4158
17:59:01.457624, 201.625, 4147
17:59:01.457670, 201.6275, 4134
17:59:01.457705, 201.63, 4078
17:59:01.457738, 201.6325, 4183
17:59:01.469037, 201.635, 4200
17:59:01.469113, 201.6375, 4098
17:59:01.469141, 201.64, 4181
17:59:01.469177, 201.6425, 4168
17:59:01.469201, 201.645, 4159
17:59:01.488888, 201.6475, 4127
17:59:01.488992, 201.65, 4138
17:59:01.489044, 201.6525, 4161
17:59:01.489090, 201.655, 4069
17:59:01.489836, 201.6575, 4156
17:59:01.489882, 201.66, 4172
17:59:01.489919, 201.6625, 4155
17:59:01.489954, 201.665, 4157
17:59:01.495065, 201.6675, 4181
17:59:01.495109, 201.67, 4173
17:59:01.495137, 201.6725, 4084
17:59:01.495161, 201.675, 4164
17:59:01.522970, 201.6775, 4141
17:59:01.523055, 201.68, 4149
17:59:01.523098, 201.6825, 4143
17:59:01.523132, 201.685, 4150
17:59:01.523787, 201.6875, 4170
17:59:01.523826, 201.69, 4104
17:59:01.523855, 201.6925, 4193
17:59:01.523882, 201.695, 4191
17:59:01.530602, 201.6975, 4190
17:59:01.530707, 201.7, 4150
17:59:01.530778, 201.7025, 4170
17:59:01.530885, 201.705, 4177
17:59:01.552711, 201.7075, 4118
17:59:01.552773, 201.71, 4186
17:59:01.552794, 201.7125, 4163
17:59:01.552813, 201.715, 4178
17:59:01.558744, 201.7175, 4175
17:59:01.558869, 201.72, 4193
17:59:01.558920, 201.7225, 4187
17:59:01.558962, 201.725, 4113
17:59:01.560057, 201.7275, 4184
17:59:01.560113, 201.73, 4194
17:59:01.560155, 201.7325, 4182
17:59:01.560196, 201.735, 4163
17:59:01.565581, 201.7375, 4181
17:59:01.565667, 201.74, 4190
17:59:01.565739, 201.7425, 4105
17:59:01.565808, 201.745, 4203
17:59:01.586488, 201.7475, 4195
17:59:01.586577, 201.75, 4191
17:59:01.586601, 201.7525, 4185
17:59:01.586620, 201.755, 4201
17:59:01.586638, 201.7575, 4202
17:59:01.591154, 201.76, 4119
17:59:01.591202, 201.7625, 4192
17:59:01.591222, 201.765, 4190
17:59:01.591241, 201.7675, 4191
17:59:01.600074, 201.77, 4181
17:59:01.600119, 201.7725, 4208
17:59:01.600179, 201.775, 4182
17:59:01.600207, 201.7775, 4093
17:59:01.622904, 201.78, 4202
17:59:01.622997, 201.7825, 4187
17:59:01.623080, 201.785, 4183
17:59:01.623114, 201.7875, 4175
17:59:01.628258, 201.79, 4200
17:59:01.628282, 201.7925, 4162
17:59:01.628324, 201.795, 4090
17:59:01.628342, 201.7975, 4178
17:59:01.629895, 201.8, 4202
17:59:01.629964, 201.8025, 4173
17:59:01.630016, 201.805, 4175
17:59:01.630066, 201.8075, 4189
17:59:01.657106, 201.81, 4184
17:59:01.657261, 201.8125, 4086
17:59:01.657305, 201.815, 4155
17:59:01.657336, 201.8175, 4178
17:59:01.657885, 201.82, 4171
17:59:01.657924, 201.8225, 4173
17:59:01.657952, 201.825, 4176
17:59:01.657979, 201.8275, 4200
17:59:01.658006, 201.83, 4093
17:59:01.661456, 201.8325, 4160
17:59:01.661495, 201.835, 4172
17:59:01.661523, 201.8375, 4204
17:59:01.661550, 201.84, 4173
17:59:01.689296, 201.8425, 4181
17:59:01.689370, 201.845, 4164
17:59:01.689401, 201.8475, 4080
17:59:01.689428, 201.85, 4167
17:59:01.689905, 201.8525, 4182
17:59:01.689934, 201.855, 4166
17:59:01.689955, 201.8575, 4175
17:59:01.689974, 201.86, 4196
17:59:01.696450, 201.8625, 4189
17:59:01.696521, 201.865, 4102
17:59:01.696565, 201.8675, 4215
17:59:01.696606, 201.87, 4187
17:59:01.720098, 201.8725, 4183
17:59:01.720219, 201.875, 4178
17:59:01.720252, 201.8775, 4210
17:59:01.720279, 201.88, 4195
17:59:01.720410, 201.8825, 4085
17:59:01.720877, 201.885, 4149
17:59:01.720921, 201.8875, 4139
17:59:01.720945, 201.89, 4162
17:59:01.722474, 201.8925, 4172
17:59:01.722512, 201.895, 4185
17:59:01.722534, 201.8975, 4172
17:59:01.722554, 201.9, 4088
17:59:01.731110, 201.9025, 4175
17:59:01.731138, 201.905, 4169
17:59:01.731153, 201.9075, 4185
17:59:01.731168, 201.91, 4185
17:59:01.731183, 201.9125, 4210
17:59:01.756023, 201.915, 4171
17:59:01.756091, 201.9175, 4048
17:59:01.756125, 201.92, 4154
17:59:01.756148, 201.9225, 4159
17:59:01.769681, 201.925, 4175
17:59:01.769754, 201.9275, 4164
17:59:01.769790, 201.93, 4186
17:59:01.769821, 201.9325, 4185
17:59:01.770684, 201.935, 4118
17:59:01.770740, 201.9375, 4181
17:59:01.770764, 201.94, 4189
17:59:01.770788, 201.9425, 4181
17:59:01.789910, 201.945, 4160
17:59:01.790001, 201.9475, 4159
17:59:01.790096, 201.95, 4136
17:59:01.790143, 201.9525, 4058
17:59:01.790598, 201.955, 4178
17:59:01.790627, 201.9575, 4166
17:59:01.790648, 201.96, 4159
17:59:01.790669, 201.9625, 4148
17:59:01.792487, 201.965, 4166
17:59:01.792519, 201.9675, 4172
17:59:01.792541, 201.97, 4091
17:59:01.792562, 201.9725, 4167
17:59:01.801239, 201.975, 4190
17:59:01.801288, 201.9775, 4195
17:59:01.801308, 201.98, 4152
17:59:01.801327, 201.9825, 4170
17:59:01.825237, 201.985, 4148
17:59:01.825334, 201.9875, 4079
17:59:01.825372, 201.99, 4190
17:59:01.825401, 201.9925, 4177
17:59:01.827793, 201.995, 4161
17:59:01.827855, 201.9975, 4168
17:59:01.827895, 202.0, 4170
17:59:01.827932, 202.0025, 4164
17:59:01.827970, 202.005, 4094
17:59:01.836338, 202.0075, 4175
17:59:01.836412, 202.01, 4177
17:59:01.836437, 202.0125, 4154
17:59:01.836454, 202.015, 4147
17:59:01.854688, 202.0175, 4160
17:59:01.854794, 202.02, 4165
17:59:01.854935, 202.0225, 4083
17:59:01.854975, 202.025, 4146
17:59:01.855552, 202.0275, 4139
17:59:01.855597, 202.03, 4172
17:59:01.855622, 202.0325, 4137
17:59:01.855645, 202.035, 4177
17:59:01.864799, 202.0375, 4181
17:59:01.864919, 202.04, 4075
17:59:01.864977, 202.0425, 4144
17:59:01.865029, 202.045, 4124
17:59:01.889046, 202.0475, 4149
17:59:01.889127, 202.05, 4135
17:59:01.889153, 202.0525, 4151
17:59:01.889174, 202.055, 4151
17:59:01.889600, 202.0575, 4122
17:59:01.889627, 202.06, 4160
17:59:01.889643, 202.0625, 4132
17:59:01.889658, 202.065, 4122
17:59:01.897447, 202.0675, 4126
17:59:01.897502, 202.07, 4166
17:59:01.897524, 202.0725, 4142
17:59:01.897576, 202.075, 4078
17:59:01.897627, 202.0775, 4173
17:59:01.920697, 202.08, 4172
17:59:01.920808, 202.0825, 4187
17:59:01.920839, 202.085, 4180
17:59:01.920960, 202.0875, 4191
17:59:01.921392, 202.09, 4171
17:59:01.921437, 202.0925, 4079
17:59:01.921458, 202.095, 4170
17:59:01.921478, 202.0975, 4181
17:59:01.932436, 202.1, 4173
17:59:01.932474, 202.1025, 4167
17:59:01.932495, 202.105, 4186
17:59:01.932514, 202.1075, 4195
17:59:01.958038, 202.11, 4090
17:59:01.958172, 202.1125, 4191
17:59:01.958209, 202.115, 4197
17:59:01.958240, 202.1175, 4175
17:59:01.958889, 202.12, 4177
17:59:01.958978, 202.1225, 4211
17:59:01.959014, 202.125, 4203
17:59:01.959043, 202.1275, 4115
17:59:01.959632, 202.13, 4207
17:59:01.959674, 202.1325, 4206
17:59:01.959704, 202.135, 4197
17:59:01.959732, 202.1375, 4128
17:59:01.967461, 202.14, 4213
17:59:01.967510, 202.1425, 4190
17:59:01.967541, 202.145, 4107
17:59:01.967568, 202.1475, 4201
17:59:01.991317, 202.15, 4196
17:59:01.991439, 202.1525, 4167
17:59:01.991551, 202.155, 4133
17:59:01.991620, 202.1575, 4169
17:59:01.994017, 202.16, 4181
17:59:01.994082, 202.1625, 4116
17:59:01.994122, 202.165, 4180
17:59:01.994159, 202.1675, 4179
17:59:01.994196, 202.17, 4161
17:59:02.003019, 202.1725, 4159
17:59:02.003073, 202.175, 4151
17:59:02.003094, 202.1775, 4159
17:59:02.003113, 202.18, 4056
17:59:02.021392, 202.1825, 4140
17:59:02.021500, 202.185, 4125
17:59:02.021526, 202.1875, 4119
17:59:02.021546, 202.19, 4099
17:59:02.021877, 202.1925, 4144
17:59:02.021906, 202.195, 4140
17:59:02.021921, 202.1975, 4068
17:59:02.021935, 202.2, 4161
17:59:02.055111, 202.2025, 4147
17:59:02.055212, 202.205, 4167
17:59:02.055264, 202.2075, 4160
17:59:02.055289, 202.21, 4203
17:59:02.055678, 202.2125, 4194
17:59:02.055713, 202.215, 4134
17:59:02.055730, 202.2175, 4225
17:59:02.055745, 202.22, 4212
17:59:02.056082, 202.2225, 4219
17:59:02.056123, 202.225, 4143
17:59:02.056151, 202.2275, 4221
17:59:02.056171, 202.23, 4215
17:59:02.064077, 202.2325, 4141
17:59:02.064144, 202.235, 4204
17:59:02.064178, 202.2375, 4179
17:59:02.064209, 202.24, 4178
17:59:02.088633, 202.2425, 4180
17:59:02.088758, 202.245, 4188
17:59:02.088795, 202.2475, 4189
17:59:02.088831, 202.25, 4096
17:59:02.089354, 202.2525, 4200
17:59:02.089404, 202.255, 4203
17:59:02.089428, 202.2575, 4185
17:59:02.089449, 202.26, 4181
17:59:02.089905, 202.2625, 4210
17:59:02.089950, 202.265, 4192
17:59:02.089973, 202.2675, 4098
17:59:02.089994, 202.27, 4200
17:59:02.090015, 202.2725, 4200
17:59:02.098501, 202.275, 4221
17:59:02.098538, 202.2775, 4195
17:59:02.098553, 202.28, 4262
17:59:02.155465, 202.2825, 4312
17:59:02.155554, 202.285, 4307
17:59:02.155588, 202.2875, 4391
17:59:02.155622, 202.29, 4437
17:59:02.155651, 202.2925, 4453
17:59:02.156190, 202.295, 4376
17:59:02.156239, 202.2975, 4226
17:59:02.156275, 202.3, 3993
17:59:02.156315, 202.3025, 3706
17:59:02.156768, 202.305, 3505
17:59:02.156807, 202.3075, 3262
17:59:02.156831, 202.31, 2877
17:59:02.156853, 202.3125, 2337
17:59:02.157246, 202.315, 2110
17:59:02.157282, 202.3175, 1939
17:59:02.157304, 202.32, 1882
17:59:02.157327, 202.3225, 2216
17:59:02.157722, 202.325, 2737
17:59:02.157755, 202.3275, 3599
17:59:02.157777, 202.33, 4462
17:59:02.157798, 202.3325, 4913
17:59:02.168504, 202.335, 5050
17:59:02.168543, 202.3375, 4964
17:59:02.168558, 202.34, 4942
17:59:02.168572, 202.3425, 4790
17:59:02.168586, 202.345, 4664
17:59:02.189032, 202.3475, 4592
17:59:02.189118, 202.35, 4559
17:59:02.189159, 202.3525, 4517
17:59:02.189196, 202.355, 4432
17:59:02.189824, 202.3575, 4512
17:59:02.189872, 202.36, 4507
17:59:02.189905, 202.3625, 4511
17:59:02.189935, 202.365, 4485
17:59:02.222905, 202.3675, 4506
17:59:02.223010, 202.37, 4492
17:59:02.223036, 202.3725, 4398
17:59:02.223057, 202.375, 4493
17:59:02.223476, 202.3775, 4447
17:59:02.223513, 202.38, 4417
17:59:02.223530, 202.3825, 4388
17:59:02.223545, 202.385, 4412
17:59:02.223810, 202.3875, 4425
17:59:02.223841, 202.39, 4334
17:59:02.223857, 202.3925, 4395
17:59:02.223872, 202.395, 4390
17:59:02.255934, 202.3975, 4367
17:59:02.256030, 202.4, 4348
17:59:02.256068, 202.4025, 4330
17:59:02.256090, 202.405, 4314
17:59:02.256111, 202.4075, 4225
17:59:02.256499, 202.41, 4323
17:59:02.256537, 202.4125, 4302
17:59:02.256553, 202.415, 4264
17:59:02.256823, 202.4175, 4262
17:59:02.256847, 202.42, 4286
17:59:02.256863, 202.4225, 4284
17:59:02.256878, 202.425, 4200
17:59:02.257141, 202.4275, 4275
17:59:02.257167, 202.43, 4279
17:59:02.257183, 202.4325, 4278
17:59:02.257198, 202.435, 4236
17:59:02.257213, 202.4375, 4266
17:59:02.265111, 202.44, 4262
17:59:02.265140, 202.4425, 4174
17:59:02.265157, 202.445, 4257
17:59:02.265171, 202.4475, 4238
17:59:02.291959, 202.45, 4232
17:59:02.292057, 202.4525, 4232
17:59:02.292107, 202.455, 4256
17:59:02.292214, 202.4575, 4229
17:59:02.302146, 202.46, 4161
17:59:02.302175, 202.4625, 4225
17:59:02.302192, 202.465, 4229
17:59:02.302207, 202.4675, 4196
17:59:02.303359, 202.47, 4182
17:59:02.303379, 202.4725, 4205
17:59:02.303393, 202.475, 4214
17:59:02.303408, 202.4775, 4183
17:59:02.323220, 202.48, 4213
17:59:02.323314, 202.4825, 4197
17:59:02.323377, 202.485, 4164
17:59:02.323432, 202.4875, 4123
17:59:02.324002, 202.49, 4206
17:59:02.324058, 202.4925, 4204
17:59:02.324083, 202.495, 4105
17:59:02.324106, 202.4975, 4209
17:59:02.324129, 202.5, 4216
17:59:02.326328, 202.5025, 4184
17:59:02.326375, 202.505, 4169
17:59:02.326400, 202.5075, 4185
17:59:02.326423, 202.51, 4173
17:59:02.358756, 202.5125, 4066
17:59:02.358816, 202.515, 4145
17:59:02.358838, 202.5175, 4168
17:59:02.358887, 202.52, 4154
17:59:02.359391, 202.5225, 4184
17:59:02.359424, 202.525, 4203
17:59:02.359448, 202.5275, 4204
17:59:02.359471, 202.53, 4134
17:59:02.361237, 202.5325, 4207
17:59:02.361268, 202.535, 4211
17:59:02.361291, 202.5375, 4158
17:59:02.361313, 202.54, 4115
17:59:02.370378, 202.5425, 4153
17:59:02.370474, 202.545, 4157
17:59:02.370524, 202.5475, 4077
17:59:02.370570, 202.55, 4155
17:59:02.394589, 202.5525, 4151
17:59:02.394643, 202.555, 4131
17:59:02.394665, 202.5575, 4130
17:59:02.394683, 202.56, 4151
17:59:02.395989, 202.5625, 4161
17:59:02.396023, 202.565, 4086
17:59:02.396041, 202.5675, 4184
17:59:02.396056, 202.57, 4142
17:59:02.405601, 202.5725, 4147
17:59:02.405707, 202.575, 4136
17:59:02.405731, 202.5775, 4169
17:59:02.405749, 202.58, 4175
17:59:02.405768, 202.5825, 4094
17:59:02.427106, 202.585, 4198
17:59:02.427192, 202.5875, 4165
17:59:02.427221, 202.59, 4174
17:59:02.427247, 202.5925, 4156
17:59:02.427684, 202.595, 4177
17:59:02.427714, 202.5975, 4144
17:59:02.427733, 202.6, 4070
17:59:02.427752, 202.6025, 4156
17:59:02.431144, 202.605, 4160
17:59:02.431170, 202.6075, 4158
17:59:02.431186, 202.61, 4159
17:59:02.431201, 202.6125, 4164
17:59:02.440182, 202.615, 4160
17:59:02.440236, 202.6175, 4068
17:59:02.440258, 202.62, 4177
17:59:02.440277, 202.6225, 4177
17:59:02.461169, 202.625, 4181
17:59:02.461227, 202.6275, 4189
17:59:02.461248, 202.63, 4205
17:59:02.461295, 202.6325, 4197
17:59:02.461317, 202.635, 4096
17:59:02.467050, 202.6375, 4194
17:59:02.467108, 202.64, 4207
17:59:02.467140, 202.6425, 4228
17:59:02.491686, 202.645, 4204
17:59:02.491811, 202.6475, 4228
17:59:02.491860, 202.65, 4230
17:59:02.491969, 202.6525, 4145
17:59:02.492451, 202.655, 4252
17:59:02.492493, 202.6575, 4260
17:59:02.492516, 202.66, 4250
17:59:02.492539, 202.6625, 4216
17:59:02.492561, 202.665, 4252
17:59:02.492955, 202.6675, 4229
17:59:02.492985, 202.67, 4157
17:59:02.493007, 202.6725, 4250
17:59:02.493028, 202.675, 4248
17:59:02.524299, 202.6775, 4232
17:59:02.524410, 202.68, 4245
17:59:02.524452, 202.6825, 4281
17:59:02.524488, 202.685, 4251
17:59:02.525063, 202.6875, 4201
17:59:02.525118, 202.69, 4257
17:59:02.525146, 202.6925, 4270
17:59:02.525173, 202.695, 4267
17:59:02.527494, 202.6975, 4235
17:59:02.527546, 202.7, 4244
17:59:02.527570, 202.7025, 4241
17:59:02.527592, 202.705, 4153
17:59:02.536505, 202.7075, 4246
17:59:02.536581, 202.71, 4255
17:59:02.536625, 202.7125, 4243
17:59:02.536667, 202.715, 4205
17:59:02.560436, 202.7175, 4250
17:59:02.560507, 202.72, 4252
17:59:02.560531, 202.7225, 4146
17:59:02.560550, 202.725, 4240
17:59:02.560955, 202.7275, 4206
17:59:02.560987, 202.73, 4203
17:59:02.561014, 202.7325, 4205
17:59:02.561037, 202.735, 4208
17:59:02.561073, 202.7375, 4205
17:59:02.571864, 202.74, 4138
17:59:02.571923, 202.7425, 4229
17:59:02.571953, 202.745, 4209
17:59:02.571981, 202.7475, 4229
17:59:02.596128, 202.75, 4225
17:59:02.596191, 202.7525, 4215
17:59:02.596215, 202.755, 4197
17:59:02.596236, 202.7575, 4125
17:59:02.596753, 202.76, 4191
17:59:02.596782, 202.7625, 4178
17:59:02.596799, 202.765, 4190
17:59:02.596815, 202.7675, 4178
17:59:02.597367, 202.77, 4201
17:59:02.597388, 202.7725, 4177
17:59:02.597403, 202.775, 4119
17:59:02.597446, 202.7775, 4207
17:59:02.625134, 202.78, 4214
17:59:02.625257, 202.7825, 4196
17:59:02.625294, 202.785, 4171
17:59:02.625337, 202.7875, 4171
17:59:02.625959, 202.79, 4141
17:59:02.626006, 202.7925, 4051
17:59:02.626030, 202.795, 4164
17:59:02.626052, 202.7975, 4162
17:59:02.632615, 202.8, 4181
17:59:02.632707, 202.8025, 4156
17:59:02.632764, 202.805, 4180
17:59:02.632815, 202.8075, 4181
17:59:02.632865, 202.81, 4107
17:59:02.641883, 202.8125, 4163
17:59:02.641942, 202.815, 4144
17:59:02.641965, 202.8175, 4149
17:59:02.641985, 202.82, 4154
17:59:02.663170, 202.8225, 4174
17:59:02.663229, 202.825, 4161
17:59:02.663252, 202.8275, 4090
17:59:02.663271, 202.83, 4173
17:59:02.663610, 202.8325, 4172
17:59:02.663634, 202.835, 4176
17:59:02.663650, 202.8375, 4164
17:59:02.663664, 202.84, 4205
17:59:02.668248, 202.8425, 4198
17:59:02.668332, 202.845, 4113
17:59:02.668387, 202.8475, 4207
17:59:02.668437, 202.85, 4186
17:59:02.691701, 202.8525, 4167
17:59:02.691797, 202.855, 4177
17:59:02.691852, 202.8575, 4181
17:59:02.691875, 202.86, 4173
17:59:02.693523, 202.8625, 4097
17:59:02.693560, 202.865, 4179
17:59:02.693576, 202.8675, 4193
17:59:02.693591, 202.87, 4159
17:59:02.702699, 202.8725, 4168
17:59:02.702762, 202.875, 4180
17:59:02.702800, 202.8775, 4170
17:59:02.702834, 202.88, 4088
17:59:02.702883, 202.8825, 4179
17:59:02.730948, 202.885, 4187
17:59:02.731030, 202.8875, 4174
17:59:02.731062, 202.89, 4146
17:59:02.731090, 202.8925, 4166
17:59:02.731538, 202.895, 4153
17:59:02.731568, 202.8975, 4074
17:59:02.731588, 202.9, 4167
17:59:02.731607, 202.9025, 4161
17:59:02.737695, 202.905, 4140
17:59:02.737766, 202.9075, 4137
17:59:02.737810, 202.91, 4169
17:59:02.737851, 202.9125, 4170
17:59:02.763731, 202.915, 4077
17:59:02.763782, 202.9175, 4151
17:59:02.763804, 202.92, 4150
17:59:02.763824, 202.9225, 4153
17:59:02.764169, 202.925, 4166
17:59:02.764194, 202.9275, 4163
17:59:02.764210, 202.93, 4156
17:59:02.764225, 202.9325, 4068
17:59:02.764492, 202.935, 4186
17:59:02.764512, 202.9375, 4173
17:59:02.764527, 202.94, 4157
17:59:02.764542, 202.9425, 4159
17:59:02.772932, 202.945, 4181
17:59:02.772989, 202.9475, 4169
17:59:02.773074, 202.95, 4090
17:59:02.773113, 202.9525, 4187
17:59:02.796584, 202.955, 4171
17:59:02.796666, 202.9575, 4178
17:59:02.796691, 202.96, 4164
17:59:02.796712, 202.9625, 4172
17:59:02.797177, 202.965, 4155
17:59:02.797206, 202.9675, 4085
17:59:02.797222, 202.97, 4167
17:59:02.797237, 202.9725, 4172
17:59:02.807914, 202.975, 4165
17:59:02.807993, 202.9775, 4157
17:59:02.808043, 202.98, 4162
17:59:02.808091, 202.9825, 4152
17:59:02.808129, 202.985, 4095
17:59:02.825898, 202.9875, 4152
17:59:02.825964, 202.99, 4166
17:59:02.825987, 202.9925, 4170
17:59:02.826385, 202.995, 4142
17:59:02.826414, 202.9975, 4180
17:59:02.826429, 203.0, 4182
17:59:02.826444, 203.0025, 4091
17:59:02.833755, 203.005, 4173
17:59:02.833814, 203.0075, 4153
17:59:02.833845, 203.01, 4145
17:59:02.833872, 203.0125, 4128
17:59:02.843446, 203.015, 4149
17:59:02.843493, 203.0175, 4122
17:59:02.843523, 203.02, 4072
17:59:02.843542, 203.0225, 4156
17:59:02.843557, 203.025, 4157
17:59:02.870868, 203.0275, 4148
17:59:02.870928, 203.03, 4127
17:59:02.870948, 203.0325, 4153
17:59:02.871007, 203.035, 4119
17:59:02.871296, 203.0375, 4065
17:59:02.871319, 203.04, 4147
17:59:02.871333, 203.0425, 4152
17:59:02.871347, 203.045, 4169
17:59:02.897005, 203.0475, 4152
17:59:02.897105, 203.05, 4161
17:59:02.897148, 203.0525, 4147
17:59:02.897185, 203.055, 4055
17:59:02.898279, 203.0575, 4172
17:59:02.898364, 203.06, 4166
17:59:02.898420, 203.0625, 4172
17:59:02.898471, 203.065, 4134
17:59:02.899406, 203.0675, 4159
17:59:02.899472, 203.07, 4159
17:59:02.899519, 203.0725, 4083
17:59:02.899565, 203.075, 4156
17:59:02.904053, 203.0775, 4148
17:59:02.904119, 203.08, 4134
17:59:02.904167, 203.0825, 4149
17:59:02.904212, 203.085, 4143
17:59:02.904258, 203.0875, 4118
17:59:02.932021, 203.09, 4069
17:59:02.932115, 203.0925, 4146
17:59:02.932165, 203.095, 4137
17:59:02.932206, 203.0975, 4155
17:59:02.932855, 203.1, 4144
17:59:02.932901, 203.1025, 4152
17:59:02.932968, 203.105, 4163
17:59:02.933001, 203.1075, 4059
17:59:02.939221, 203.11, 4158
17:59:02.939294, 203.1125, 4157
17:59:02.939343, 203.115, 4154
17:59:02.939388, 203.1175, 4146
17:59:02.965239, 203.12, 4185
17:59:02.965375, 203.1225, 4184
17:59:02.965425, 203.125, 4116
17:59:02.965470, 203.1275, 4183
17:59:02.966189, 203.13, 4176
17:59:02.966285, 203.1325, 4165
17:59:02.966342, 203.135, 4158
17:59:02.966395, 203.1375, 4145
17:59:02.974312, 203.14, 4143
17:59:02.974382, 203.1425, 4088
17:59:02.974424, 203.145, 4175
17:59:02.974463, 203.1475, 4185
17:59:02.998636, 203.15, 4161
17:59:02.998726, 203.1525, 4129
17:59:02.998764, 203.155, 4152
17:59:02.998889, 203.1575, 4125
17:59:02.999003, 203.16, 4075
17:59:03.000118, 203.1625, 4176
17:59:03.000204, 203.165, 4160
17:59:03.000260, 203.1675, 4148
17:59:03.000312, 203.17, 4109
17:59:03.001226, 203.1725, 4139
17:59:03.001293, 203.175, 4145
17:59:03.001345, 203.1775, 4094
17:59:03.001396, 203.18, 4177
17:59:03.009312, 203.1825, 4170
17:59:03.009401, 203.185, 4150
17:59:03.010170, 203.1875, 4150
17:59:03.010282, 203.19, 4161
17:59:03.032033, 203.1925, 4167
17:59:03.032114, 203.195, 4090
17:59:03.032161, 203.1975, 4178
17:59:03.032200, 203.2, 4179
17:59:03.035350, 203.2025, 4170
17:59:03.035428, 203.205, 4154
17:59:03.035478, 203.2075, 4166
17:59:03.035524, 203.21, 4157
17:59:03.035570, 203.2125, 4074
17:59:03.066850, 203.215, 4165
17:59:03.066920, 203.2175, 4168
17:59:03.066948, 203.22, 4164
17:59:03.067342, 203.2225, 4161
17:59:03.067402, 203.225, 4179
17:59:03.067431, 203.2275, 4156
17:59:03.067460, 203.23, 4060
17:59:03.068516, 203.2325, 4147
17:59:03.068599, 203.235, 4148
17:59:03.068654, 203.2375, 4129
17:59:03.068706, 203.24, 4112
17:59:03.068756, 203.2425, 4121
17:59:03.070622, 203.245, 4143
17:59:03.070695, 203.2475, 4079
17:59:03.070749, 203.25, 4160
17:59:03.070800, 203.2525, 4160
17:59:03.095519, 203.255, 4153
17:59:03.095617, 203.2575, 4146
17:59:03.095655, 203.26, 4173
17:59:03.095685, 203.2625, 4188
17:59:03.096271, 203.265, 4138
17:59:03.096301, 203.2675, 4204
17:59:03.096321, 203.27, 4211
17:59:03.096341, 203.2725, 4205
17:59:03.104742, 203.275, 4178
17:59:03.104770, 203.2775, 4174
17:59:03.104786, 203.28, 4178
17:59:03.104800, 203.2825, 4103
17:59:03.126821, 203.285, 4183
17:59:03.126967, 203.2875, 4183
17:59:03.127004, 203.29, 4194
17:59:03.127034, 203.2925, 4162
17:59:03.133409, 203.295, 4195
17:59:03.133462, 203.2975, 4161
17:59:03.133487, 203.3, 4068
17:59:03.133511, 203.3025, 4155
17:59:03.134619, 203.305, 4189
17:59:03.134679, 203.3075, 4182
17:59:03.134724, 203.31, 4136
17:59:03.134797, 203.3125, 4171
17:59:03.160648, 203.315, 4189
17:59:03.160731, 203.3175, 4099
17:59:03.160753, 203.32, 4169
17:59:03.160772, 203.3225, 4198
17:59:03.161150, 203.325, 4199
17:59:03.161183, 203.3275, 4208
17:59:03.161199, 203.33, 4248
17:59:03.161214, 203.3325, 4338
17:59:03.161229, 203.335, 4333
17:59:03.166342, 203.3375, 4419
17:59:03.166397, 203.34, 4439
17:59:03.166426, 203.3425, 4491
17:59:03.166454, 203.345, 4411
17:59:03.176277, 203.3475, 4275
17:59:03.176553, 203.35, 4090
17:59:03.176603, 203.3525, 3772
17:59:03.176640, 203.355, 3556
17:59:03.196997, 203.3575, 3262
17:59:03.197054, 203.36, 2835
17:59:03.197076, 203.3625, 2324
17:59:03.197094, 203.365, 1932
17:59:03.197428, 203.3675, 1763
17:59:03.197449, 203.37, 1734
17:59:03.197464, 203.3725, 2007
17:59:03.197479, 203.375, 2658
17:59:03.231706, 203.3775, 3556
17:59:03.231764, 203.38, 4369
17:59:03.231787, 203.3825, 4847
17:59:03.231807, 203.385, 4961
17:59:03.232166, 203.3875, 4845
17:59:03.232195, 203.39, 4803
17:59:03.232213, 203.3925, 4655
17:59:03.232229, 203.395, 4569
17:59:03.232497, 203.3975, 4550
17:59:03.232516, 203.4, 4546
17:59:03.232532, 203.4025, 4517
17:59:03.232547, 203.405, 4431
17:59:03.266436, 203.4075, 4511
17:59:03.266511, 203.41, 4527
17:59:03.266539, 203.4125, 4526
17:59:03.266559, 203.415, 4493
17:59:03.266610, 203.4175, 4507
17:59:03.266973, 203.42, 4492
17:59:03.266998, 203.4225, 4399
17:59:03.267014, 203.425, 4486
17:59:03.267029, 203.4275, 4457
17:59:03.267370, 203.43, 4452
17:59:03.267393, 203.4325, 4361
17:59:03.267436, 203.435, 4439
17:59:03.267454, 203.4375, 4419
17:59:03.271484, 203.44, 4333
17:59:03.271540, 203.4425, 4404
17:59:03.271571, 203.445, 4406
17:59:03.271608, 203.4475, 4392
17:59:03.299522, 203.45, 4364
17:59:03.299696, 203.4525, 4382
17:59:03.299747, 203.455, 4363
17:59:03.299782, 203.4575, 4309
17:59:03.300303, 203.46, 4364
17:59:03.300340, 203.4625, 4364
17:59:03.300366, 203.465, 4347
17:59:03.300390, 203.4675, 4331
17:59:03.300818, 203.47, 4348
17:59:03.300850, 203.4725, 4325
17:59:03.300874, 203.475, 4244
17:59:03.300898, 203.4775, 4322
17:59:03.306441, 203.48, 4304
17:59:03.306513, 203.4825, 4309
17:59:03.306557, 203.485, 4275
17:59:03.306597, 203.4875, 4292
17:59:03.328916, 203.49, 4282
17:59:03.328992, 203.4925, 4203
17:59:03.329034, 203.495, 4270
17:59:03.329056, 203.4975, 4247
17:59:03.332459, 203.5, 4236
17:59:03.332502, 203.5025, 4251
17:59:03.332522, 203.505, 4246
17:59:03.332540, 203.5075, 4237
17:59:03.332559, 203.51, 4150
17:59:03.341569, 203.5125, 4251
17:59:03.341649, 203.515, 4264
17:59:03.341697, 203.5175, 4246
17:59:03.341742, 203.52, 4240
17:59:03.364290, 203.5225, 4253
17:59:03.364358, 203.525, 4257
17:59:03.364380, 203.5275, 4180
17:59:03.364400, 203.53, 4257
17:59:03.364746, 203.5325, 4257
17:59:03.364768, 203.535, 4249
17:59:03.364783, 203.5375, 4233
17:59:03.364797, 203.54, 4246
17:59:03.367660, 203.5425, 4235
17:59:03.367706, 203.545, 4150
17:59:03.367732, 203.5475, 4231
17:59:03.367755, 203.55, 4232
17:59:03.399299, 203.5525, 4184
17:59:03.399370, 203.555, 4166
17:59:03.399394, 203.5575, 4178
17:59:03.399466, 203.56, 4167
17:59:03.399780, 203.5625, 4135
17:59:03.399804, 203.565, 4200
17:59:03.399820, 203.5675, 4182
17:59:03.399835, 203.57, 4182
17:59:03.403070, 203.5725, 4191
17:59:03.403136, 203.575, 4222
17:59:03.403177, 203.5775, 4214
17:59:03.403214, 203.58, 4145
17:59:03.403250, 203.5825, 4238
17:59:03.429112, 203.585, 4228
17:59:03.429221, 203.5875, 4217
17:59:03.429324, 203.59, 4212
17:59:03.429369, 203.5925, 4246
17:59:03.429843, 203.595, 4240
17:59:03.429887, 203.5975, 4147
17:59:03.429909, 203.6, 4232
17:59:03.429929, 203.6025, 4208
17:59:03.437513, 203.605, 4208
17:59:03.437561, 203.6075, 4201
17:59:03.437587, 203.61, 4224
17:59:03.437611, 203.6125, 4227
17:59:03.463183, 203.615, 4144
17:59:03.463349, 203.6175, 4219
17:59:03.463423, 203.62, 4218
17:59:03.463462, 203.6225, 4221
17:59:03.464075, 203.625, 4196
17:59:03.464132, 203.6275, 4207
17:59:03.464162, 203.63, 4206
17:59:03.464191, 203.6325, 4118
17:59:03.464709, 203.635, 4202
17:59:03.464777, 203.6375, 4192
17:59:03.464820, 203.64, 4187
17:59:03.464862, 203.6425, 4180
17:59:03.472942, 203.645, 4172
17:59:03.473008, 203.6475, 4182
17:59:03.473042, 203.65, 4078
17:59:03.473074, 203.6525, 4144
17:59:03.498153, 203.655, 4154
17:59:03.498218, 203.6575, 4127
17:59:03.498243, 203.66, 4092
17:59:03.498268, 203.6625, 4110
17:59:03.498682, 203.665, 4096
17:59:03.498706, 203.6675, 4026
17:59:03.498722, 203.67, 4080
17:59:03.498737, 203.6725, 4092
17:59:03.507985, 203.675, 4101
17:59:03.508075, 203.6775, 4111
17:59:03.508132, 203.68, 4119
17:59:03.508183, 203.6825, 4101
17:59:03.508234, 203.685, 4049
17:59:03.532199, 203.6875, 4141
17:59:03.532261, 203.69, 4135
17:59:03.532284, 203.6925, 4149
17:59:03.532304, 203.695, 4145
17:59:03.532644, 203.6975, 4169
17:59:03.532666, 203.7, 4162
17:59:03.532682, 203.7025, 4076
17:59:03.532697, 203.705, 4188
17:59:03.533603, 203.7075, 4167
17:59:03.533623, 203.71, 4167
17:59:03.533638, 203.7125, 4168
17:59:03.533653, 203.715, 4208
17:59:03.566104, 203.7175, 4206
17:59:03.566168, 203.72, 4114
17:59:03.566192, 203.7225, 4213
17:59:03.566211, 203.725, 4223
17:59:03.566558, 203.7275, 4231
17:59:03.566589, 203.73, 4223
17:59:03.566615, 203.7325, 4212
17:59:03.566639, 203.735, 4215
17:59:03.568462, 203.7375, 4136
17:59:03.568495, 203.74, 4220
17:59:03.568510, 203.7425, 4208
17:59:03.568524, 203.745, 4203
17:59:03.568538, 203.7475, 4199
17:59:03.578283, 203.75, 4225
17:59:03.578327, 203.7525, 4220
17:59:03.578347, 203.755, 4129
17:59:03.578380, 203.7575, 4225
17:59:03.597031, 203.76, 4201
17:59:03.597202, 203.7625, 4205
17:59:03.597256, 203.765, 4194
17:59:03.597301, 203.7675, 4220
17:59:03.597879, 203.77, 4190
17:59:03.597939, 203.7725, 4103
17:59:03.597963, 203.775, 4200
17:59:03.597984, 203.7775, 4210
17:59:03.603817, 203.78, 4211
17:59:03.603884, 203.7825, 4187
17:59:03.603919, 203.785, 4207
17:59:03.603951, 203.7875, 4196
17:59:03.629732, 203.79, 4120
17:59:03.629798, 203.7925, 4208
17:59:03.629819, 203.795, 4197
17:59:03.629837, 203.7975, 4175
17:59:03.630283, 203.8, 4147
17:59:03.630330, 203.8025, 4148
17:59:03.630346, 203.805, 4132
17:59:03.630362, 203.8075, 4046
17:59:03.638788, 203.81, 4127
17:59:03.638917, 203.8125, 4143
17:59:03.638971, 203.815, 4147
17:59:03.639017, 203.8175, 4141
17:59:03.663286, 203.82, 4165
17:59:03.663406, 203.8225, 4153
17:59:03.663430, 203.825, 4070
17:59:03.663462, 203.8275, 4172
17:59:03.663847, 203.83, 4163
17:59:03.663880, 203.8325, 4140
17:59:03.663895, 203.835, 4122
17:59:03.663909, 203.8375, 4148
17:59:03.675080, 203.84, 4157
17:59:03.675183, 203.8425, 4076
17:59:03.675243, 203.845, 4176
17:59:03.675296, 203.8475, 4175
17:59:03.675346, 203.85, 4181
17:59:03.700108, 203.8525, 4172
17:59:03.700180, 203.855, 4164
17:59:03.700273, 203.8575, 4168
17:59:03.700301, 203.86, 4105
17:59:03.700601, 203.8625, 4177
17:59:03.700623, 203.865, 4178
17:59:03.700639, 203.8675, 4161
17:59:03.700654, 203.87, 4153
17:59:03.700914, 203.8725, 4176
17:59:03.700934, 203.875, 4153
17:59:03.700949, 203.8775, 4093
17:59:03.700963, 203.88, 4166
17:59:03.709146, 203.8825, 4172
17:59:03.709247, 203.885, 4162
17:59:03.709304, 203.8875, 4138
17:59:03.709355, 203.89, 4169
17:59:03.734975, 203.8925, 4152
17:59:03.735073, 203.895, 4095
17:59:03.735102, 203.8975, 4188
17:59:03.735123, 203.9, 4187
17:59:03.735448, 203.9025, 4169
17:59:03.735472, 203.905, 4170
17:59:03.735487, 203.9075, 4156
17:59:03.735502, 203.91, 4150
17:59:03.735517, 203.9125, 4078
17:59:03.744284, 203.915, 4168
17:59:03.744391, 203.9175, 4143
17:59:03.744463, 203.92, 4160
17:59:03.744519, 203.9225, 4159
17:59:03.764603, 203.925, 4171
17:59:03.764718, 203.9275, 4157
17:59:03.764754, 203.93, 4104
17:59:03.764784, 203.9325, 4159
17:59:03.765412, 203.935, 4139
17:59:03.765461, 203.9375, 4123
17:59:03.765485, 203.94, 4130
17:59:03.765508, 203.9425, 4145
17:59:03.769882, 203.945, 4150
17:59:03.769924, 203.9475, 4092
17:59:03.769949, 203.95, 4173
17:59:03.769971, 203.9525, 4168
17:59:03.797818, 203.955, 4148
17:59:03.797892, 203.9575, 4145
17:59:03.797914, 203.96, 4155
17:59:03.797934, 203.9625, 4182
17:59:03.798315, 203.965, 4107
17:59:03.798359, 203.9675, 4180
17:59:03.798375, 203.97, 4171
17:59:03.798390, 203.9725, 4159
17:59:03.805490, 203.975, 4141
17:59:03.805581, 203.9775, 4161
17:59:03.805636, 203.98, 4151
17:59:03.805687, 203.9825, 4073
17:59:03.814502, 203.985, 4156
17:59:03.814629, 203.9875, 4146
17:59:03.814687, 203.99, 4135
17:59:03.814740, 203.9925, 4139
17:59:03.832335, 203.995, 4152
17:59:03.832428, 203.9975, 4144
17:59:03.832469, 204.0, 4074
17:59:03.832500, 204.0025, 4161
17:59:03.832839, 204.005, 4150
17:59:03.832862, 204.0075, 4148
17:59:03.832877, 204.01, 4126
17:59:03.832892, 204.0125, 4159
17:59:03.868001, 204.015, 4160
17:59:03.868043, 204.0175, 4098
17:59:03.868065, 204.02, 4190
17:59:03.868085, 204.0225, 4182
17:59:03.868104, 204.025, 4169
17:59:03.868461, 204.0275, 4164
17:59:03.868493, 204.03, 4175
17:59:03.868508, 204.0325, 4177
17:59:03.868524, 204.035, 4093
17:59:03.868784, 204.0375, 4182
17:59:03.868804, 204.04, 4182
17:59:03.868819, 204.0425, 4179
17:59:03.868834, 204.045, 4148
17:59:03.875562, 204.0475, 4155
17:59:03.875621, 204.05, 4166
17:59:03.875654, 204.0525, 4072
17:59:03.875684, 204.055, 4159
17:59:03.898420, 204.0575, 4158
17:59:03.898533, 204.06, 4148
17:59:03.898570, 204.0625, 4146
17:59:03.898602, 204.065, 4193
17:59:03.899386, 204.0675, 4165
17:59:03.899456, 204.07, 4081
17:59:03.899497, 204.0725, 4158
17:59:03.899533, 204.075, 4141
17:59:03.910286, 204.0775, 4140
17:59:03.910376, 204.08, 4139
17:59:03.910428, 204.0825, 4156
17:59:03.910476, 204.085, 4152
17:59:03.933150, 204.0875, 4071
17:59:03.933350, 204.09, 4152
17:59:03.933395, 204.0925, 4145
17:59:03.933424, 204.095, 4149
17:59:03.933883, 204.0975, 4151
17:59:03.933924, 204.1, 4165
17:59:03.933945, 204.1025, 4163
17:59:03.933964, 204.105, 4072
17:59:03.936224, 204.1075, 4171
17:59:03.936265, 204.11, 4161
17:59:03.936293, 204.1125, 4135
17:59:03.936320, 204.115, 4132
17:59:03.944890, 204.1175, 4129
17:59:03.944927, 204.12, 4167
17:59:03.944951, 204.1225, 4081
17:59:03.944974, 204.125, 4162
17:59:03.944996, 204.1275, 4164
17:59:03.968556, 204.13, 4175
17:59:03.968680, 204.1325, 4149
17:59:03.968712, 204.135, 4182
17:59:03.968738, 204.1375, 4179
17:59:03.971214, 204.14, 4117
17:59:03.971247, 204.1425, 4184
17:59:03.971267, 204.145, 4203
17:59:03.971286, 204.1475, 4158
17:59:03.981147, 204.15, 4152
17:59:03.981204, 204.1525, 4162
17:59:03.981260, 204.155, 4165
17:59:03.981293, 204.1575, 4083
17:59:03.999557, 204.16, 4171
17:59:03.999659, 204.1625, 4158
17:59:03.999719, 204.165, 4162
17:59:03.999743, 204.1675, 4146
17:59:04.000112, 204.17, 4164
17:59:04.000141, 204.1725, 4154
17:59:04.000157, 204.175, 4115
17:59:04.000173, 204.1775, 4175
17:59:04.006462, 204.18, 4162
17:59:04.006541, 204.1825, 4132
17:59:04.006579, 204.185, 4103
17:59:04.006613, 204.1875, 4146
17:59:04.038397, 204.19, 4159
17:59:04.038484, 204.1925, 4081
17:59:04.038509, 204.195, 4162
17:59:04.038530, 204.1975, 4158
17:59:04.038550, 204.2, 4139
17:59:04.038899, 204.2025, 4132
17:59:04.038926, 204.205, 4176
17:59:04.038942, 204.2075, 4161
17:59:04.038957, 204.21, 4091
17:59:04.041490, 204.2125, 4181
17:59:04.041552, 204.215, 4160
17:59:04.041591, 204.2175, 4158
17:59:04.041629, 204.22, 4155
17:59:04.069075, 204.2225, 4153
17:59:04.069134, 204.225, 4159
17:59:04.069157, 204.2275, 4068
17:59:04.069176, 204.23, 4168
17:59:04.069517, 204.2325, 4177
17:59:04.069538, 204.235, 4151
17:59:04.069553, 204.2375, 4171
17:59:04.069568, 204.24, 4183
17:59:04.069825, 204.2425, 4156
17:59:04.069844, 204.245, 4083
17:59:04.069860, 204.2475, 4169
17:59:04.069874, 204.25, 4171
17:59:04.099813, 204.2525, 4179
17:59:04.099945, 204.255, 4167
17:59:04.099994, 204.2575, 4206
17:59:04.100015, 204.26, 4190
17:59:04.100311, 204.2625, 4130
17:59:04.100341, 204.265, 4209
17:59:04.100356, 204.2675, 4170
17:59:04.100372, 204.27, 4154
17:59:04.102349, 204.2725, 4146
17:59:04.102379, 204.275, 4170
17:59:04.102394, 204.2775, 4149
17:59:04.102409, 204.28, 4075
17:59:04.111185, 204.2825, 4210
17:59:04.111212, 204.285, 4183
17:59:04.111229, 204.2875, 4168
17:59:04.111243, 204.29, 4163
17:59:04.135304, 204.2925, 4176
17:59:04.135392, 204.295, 4156
17:59:04.135424, 204.2975, 4062
17:59:04.135450, 204.3, 4172
17:59:04.135476, 204.3025, 4175
17:59:04.135941, 204.305, 4179
17:59:04.135972, 204.3075, 4152
17:59:04.135991, 204.31, 4152
17:59:04.136010, 204.3125, 4150
17:59:04.148163, 204.315, 4066
17:59:04.148261, 204.3175, 4161
17:59:04.148374, 204.32, 4136
17:59:04.148406, 204.3225, 4158
17:59:04.168712, 204.325, 4174
17:59:04.168777, 204.3275, 4202
17:59:04.168800, 204.33, 4184
17:59:04.168820, 204.3325, 4121
17:59:04.169150, 204.335, 4200
17:59:04.169171, 204.3375, 4164
17:59:04.169187, 204.34, 4155
17:59:04.169202, 204.3425, 4119
17:59:04.172646, 204.345, 4155
17:59:04.172735, 204.3475, 4156
17:59:04.172790, 204.35, 4027
17:59:04.172840, 204.3525, 4096
17:59:04.181572, 204.355, 4139
17:59:04.181626, 204.3575, 4164
17:59:04.181647, 204.36, 4152
17:59:04.181665, 204.3625, 4182
17:59:04.204814, 204.365, 4160
17:59:04.204875, 204.3675, 4080
17:59:04.204899, 204.37, 4167
17:59:04.204920, 204.3725, 4162
17:59:04.207849, 204.375, 4170
17:59:04.207922, 204.3775, 4152
17:59:04.207968, 204.38, 4190
17:59:04.208010, 204.3825, 4201
17:59:04.234083, 204.385, 4124
17:59:04.234285, 204.3875, 4206
17:59:04.234373, 204.39, 4202
17:59:04.234413, 204.3925, 4175
17:59:04.235048, 204.395, 4125
17:59:04.235100, 204.3975, 4163
17:59:04.235124, 204.4, 4170
17:59:04.235147, 204.4025, 4099
17:59:04.235537, 204.405, 4168
17:59:04.235573, 204.4075, 4157
17:59:04.235596, 204.41, 4170
17:59:04.235617, 204.4125, 4146
17:59:04.242602, 204.415, 4186
17:59:04.242705, 204.4175, 4173
17:59:04.242743, 204.42, 4092
17:59:04.242773, 204.4225, 4205
17:59:04.242803, 204.425, 4175
17:59:04.268919, 204.4275, 4173
17:59:04.268996, 204.43, 4119
17:59:04.269017, 204.4325, 4136
17:59:04.269036, 204.435, 4153
17:59:04.269374, 204.4375, 4067
17:59:04.269401, 204.44, 4207
17:59:04.269416, 204.4425, 4318
17:59:04.269430, 204.445, 4370
17:59:04.278291, 204.4475, 4395
17:59:04.278393, 204.45, 4418
17:59:04.278450, 204.4525, 4426
17:59:04.278501, 204.455, 4312
17:59:04.303392, 204.4575, 4270
17:59:04.303473, 204.46, 4076
17:59:04.303552, 204.4625, 3853
17:59:04.303584, 204.465, 3531
17:59:04.303991, 204.4675, 3269
17:59:04.304022, 204.47, 2892
17:59:04.304042, 204.4725, 2347
17:59:04.304061, 204.475, 2023
17:59:04.304391, 204.4775, 1836
17:59:04.304416, 204.48, 1896
17:59:04.304435, 204.4825, 2120
17:59:04.304453, 204.485, 2721
17:59:04.312800, 204.4875, 3575
17:59:04.312868, 204.49, 4244
17:59:04.312909, 204.4925, 4746
17:59:04.312947, 204.495, 4910
17:59:04.335162, 204.4975, 4901
17:59:04.335225, 204.5, 4752
17:59:04.335248, 204.5025, 4676
17:59:04.335268, 204.505, 4568
17:59:04.335316, 204.5075, 4473
17:59:04.338472, 204.51, 4555
17:59:04.338496, 204.5125, 4516
17:59:04.338511, 204.515, 4481
17:59:04.338526, 204.5175, 4458
17:59:04.347739, 204.52, 4509
17:59:04.347788, 204.5225, 4507
17:59:04.347809, 204.525, 4441
17:59:04.347828, 204.5275, 4519
17:59:04.370445, 204.53, 4511
17:59:04.370515, 204.5325, 4488
17:59:04.370570, 204.535, 4456
17:59:04.370594, 204.5375, 4474
17:59:04.370944, 204.54, 4477
17:59:04.370969, 204.5425, 4371
17:59:04.370985, 204.545, 4438
17:59:04.371000, 204.5475, 4424
17:59:04.383134, 204.55, 4379
17:59:04.383210, 204.5525, 4367
17:59:04.383258, 204.555, 4386
17:59:04.383289, 204.5575, 4377
17:59:04.401768, 204.56, 4308
17:59:04.401913, 204.5625, 4355
17:59:04.401948, 204.565, 4354
17:59:04.401975, 204.5675, 4345
17:59:04.402481, 204.57, 4326
17:59:04.402531, 204.5725, 4325
17:59:04.402553, 204.575, 4325
17:59:04.402573, 204.5775, 4259
17:59:04.408746, 204.58, 4337
17:59:04.408795, 204.5825, 4332
17:59:04.408825, 204.585, 4301
17:59:04.408852, 204.5875, 4278
17:59:04.408879, 204.59, 4299
17:59:04.433954, 204.5925, 4278
17:59:04.434140, 204.595, 4193
17:59:04.434181, 204.5975, 4277
17:59:04.434202, 204.6, 4291
17:59:04.434551, 204.6025, 4297
17:59:04.434581, 204.605, 4266
17:59:04.434596, 204.6075, 4293
17:59:04.434610, 204.61, 4267
17:59:04.444743, 204.6125, 4174
17:59:04.444884, 204.615, 4274
17:59:04.444984, 204.6175, 4271
17:59:04.445073, 204.62, 4248
17:59:04.467895, 204.6225, 4223
17:59:04.468000, 204.625, 4243
17:59:04.468027, 204.6275, 4243
17:59:04.468047, 204.63, 4153
17:59:04.468383, 204.6325, 4233
17:59:04.468412, 204.635, 4247
17:59:04.468428, 204.6375, 4217
17:59:04.468442, 204.64, 4194
17:59:04.469716, 204.6425, 4210
17:59:04.469742, 204.645, 4216
17:59:04.469757, 204.6475, 4174
17:59:04.469771, 204.65, 4222
17:59:04.479556, 204.6525, 4202
17:59:04.479610, 204.655, 4200
17:59:04.479632, 204.6575, 4196
17:59:04.479652, 204.66, 4224
17:59:04.514634, 204.6625, 4223
17:59:04.514690, 204.665, 4146
17:59:04.514750, 204.6675, 4238
17:59:04.514795, 204.67, 4203
17:59:04.514821, 204.6725, 4181
17:59:04.515371, 204.675, 4170
17:59:04.515443, 204.6775, 4189
17:59:04.515511, 204.68, 4184
17:59:04.515533, 204.6825, 4115
17:59:04.516587, 204.685, 4212
17:59:04.516629, 204.6875, 4184
17:59:04.516692, 204.69, 4171
17:59:04.516730, 204.6925, 4151
17:59:04.534093, 204.695, 4187
17:59:04.534203, 204.6975, 4189
17:59:04.534244, 204.7, 4117
17:59:04.534281, 204.7025, 4206
17:59:04.534896, 204.705, 4171
17:59:04.534949, 204.7075, 4185
17:59:04.534969, 204.71, 4179
17:59:04.534985, 204.7125, 4185
17:59:04.550397, 204.715, 4148
17:59:04.550508, 204.7175, 4102
17:59:04.550563, 204.72, 4189
17:59:04.550600, 204.7225, 4179
17:59:04.569578, 204.725, 4176
17:59:04.569634, 204.7275, 4152
17:59:04.569659, 204.73, 4143
17:59:04.569680, 204.7325, 4138
17:59:04.569702, 204.735, 4086
17:59:04.570189, 204.7375, 4172
17:59:04.570212, 204.74, 4172
17:59:04.570228, 204.7425, 4177
17:59:04.570269, 204.745, 4177
17:59:04.574713, 204.7475, 4181
17:59:04.574749, 204.75, 4145
17:59:04.574764, 204.7525, 4075
17:59:04.574777, 204.755, 4143
17:59:04.601770, 204.7575, 4146
17:59:04.601833, 204.76, 4142
17:59:04.601857, 204.7625, 4146
17:59:04.601878, 204.765, 4138
17:59:04.602291, 204.7675, 4120
17:59:04.602322, 204.77, 4058
17:59:04.602338, 204.7725, 4137
17:59:04.602353, 204.775, 4139
17:59:04.610008, 204.7775, 4143
17:59:04.610090, 204.78, 4136
17:59:04.610131, 204.7825, 4146
17:59:04.610168, 204.785, 4125
17:59:04.634615, 204.7875, 4044
17:59:04.634712, 204.79, 4104
17:59:04.634739, 204.7925, 4105
17:59:04.634759, 204.795, 4104
17:59:04.635164, 204.7975, 4124
17:59:04.635199, 204.8, 4164
17:59:04.635214, 204.8025, 4167
17:59:04.635228, 204.805, 4084
17:59:04.635996, 204.8075, 4193
17:59:04.636031, 204.81, 4167
17:59:04.636047, 204.8125, 4191
17:59:04.636061, 204.815, 4178
17:59:04.645253, 204.8175, 4199
17:59:04.645333, 204.82, 4214
17:59:04.645382, 204.8225, 4128
17:59:04.645428, 204.825, 4226
17:59:04.645475, 204.8275, 4236
17:59:04.670652, 204.83, 4237
17:59:04.670715, 204.8325, 4227
17:59:04.670740, 204.835, 4254
17:59:04.670759, 204.8375, 4218
17:59:04.682212, 204.84, 4135
17:59:04.682245, 204.8425, 4220
17:59:04.682273, 204.845, 4232
17:59:04.682297, 204.8475, 4253
17:59:04.684004, 204.85, 4231
17:59:04.684079, 204.8525, 4208
17:59:04.684103, 204.855, 4224
17:59:04.684125, 204.8575, 4164
17:59:04.703932, 204.86, 4240
17:59:04.704010, 204.8625, 4233
17:59:04.704039, 204.865, 4232
17:59:04.704074, 204.8675, 4163
17:59:04.704430, 204.87, 4223
17:59:04.704453, 204.8725, 4223
17:59:04.704469, 204.875, 4115
17:59:04.704483, 204.8775, 4205
17:59:04.706065, 204.88, 4231
17:59:04.706085, 204.8825, 4212
17:59:04.706099, 204.885, 4221
17:59:04.706112, 204.8875, 4221
17:59:04.714708, 204.89, 4226
17:59:04.714740, 204.8925, 4151
17:59:04.714755, 204.895, 4229
17:59:04.714769, 204.8975, 4188
17:59:04.735090, 204.9, 4198
17:59:04.735184, 204.9025, 4165
17:59:04.735211, 204.905, 4194
17:59:04.735234, 204.9075, 4214
17:59:04.735254, 204.91, 4134
17:59:04.740984, 204.9125, 4191
17:59:04.741019, 204.915, 4176
17:59:04.741036, 204.9175, 4191
17:59:04.741052, 204.92, 4178
17:59:04.768613, 204.9225, 4188
17:59:04.768707, 204.925, 4179
17:59:04.768731, 204.9275, 4120
17:59:04.768752, 204.93, 4199
17:59:04.769604, 204.9325, 4184
17:59:04.769651, 204.935, 4191
17:59:04.769675, 204.9375, 4178
17:59:04.769696, 204.94, 4192
17:59:04.771173, 204.9425, 4185
17:59:04.771257, 204.945, 4116
17:59:04.771310, 204.9475, 4155
17:59:04.771360, 204.95, 4179
17:59:04.785624, 204.9525, 4178
17:59:04.785685, 204.955, 4110
17:59:04.785727, 204.9575, 4205
17:59:04.785754, 204.96, 4195
17:59:04.804969, 204.9625, 4092
17:59:04.805037, 204.965, 4163
17:59:04.805067, 204.9675, 4140
17:59:04.805093, 204.97, 4179
17:59:04.805507, 204.9725, 4167
17:59:04.805535, 204.975, 4195
17:59:04.805555, 204.9775, 4196
17:59:04.805574, 204.98, 4123
17:59:04.805592, 204.9825, 4190
17:59:04.811171, 204.985, 4180
17:59:04.811208, 204.9875, 4176
17:59:04.811227, 204.99, 4148
17:59:04.811246, 204.9925, 4148
17:59:04.835580, 204.995, 4150
17:59:04.835664, 204.9975, 4085
17:59:04.835687, 205.0, 4174
17:59:04.835708, 205.0025, 4152
17:59:04.837250, 205.005, 4160
17:59:04.837287, 205.0075, 4168
17:59:04.837303, 205.01, 4169
17:59:04.837317, 205.0125, 4183
17:59:04.845984, 205.015, 4105
17:59:04.846032, 205.0175, 4190
17:59:04.846050, 205.02, 4183
17:59:04.846065, 205.0225, 4177
17:59:04.872245, 205.025, 4187
17:59:04.872327, 205.0275, 4199
17:59:04.872378, 205.03, 4180
17:59:04.872429, 205.0325, 4110
17:59:04.873132, 205.035, 4198
17:59:04.873188, 205.0375, 4192
17:59:04.873236, 205.04, 4178
17:59:04.873272, 205.0425, 4172
17:59:04.873923, 205.045, 4179
17:59:04.873970, 205.0475, 4169
17:59:04.874009, 205.05, 4076
17:59:04.874047, 205.0525, 4163
17:59:04.881487, 205.055, 4198
17:59:04.881539, 205.0575, 4182
17:59:04.881566, 205.06, 4150
17:59:04.881591, 205.0625, 4178
17:59:04.904246, 205.065, 4176
17:59:04.904335, 205.0675, 4097
17:59:04.904385, 205.07, 4161
17:59:04.904492, 205.0725, 4160
17:59:04.904544, 205.075, 4159
17:59:04.907700, 205.0775, 4175
17:59:04.907780, 205.08, 4183
17:59:04.907829, 205.0825, 4158
17:59:04.907872, 205.085, 4088
17:59:04.916217, 205.0875, 4183
17:59:04.916260, 205.09, 4179
17:59:04.916290, 205.0925, 4165
17:59:04.916319, 205.095, 4143
17:59:04.938132, 205.0975, 4168
17:59:04.938255, 205.1, 4160
17:59:04.938300, 205.1025, 4066
17:59:04.938336, 205.105, 4167
17:59:04.938924, 205.1075, 4176
17:59:04.938970, 205.11, 4177
17:59:04.939000, 205.1125, 4152
17:59:04.939026, 205.115, 4178
17:59:04.942526, 205.1175, 4185
17:59:04.942570, 205.12, 4094
17:59:04.942597, 205.1225, 4186
17:59:04.942623, 205.125, 4208
17:59:04.970318, 205.1275, 4221
17:59:04.970432, 205.13, 4186
17:59:04.970457, 205.1325, 4181
17:59:04.970481, 205.135, 4185
17:59:04.970939, 205.1375, 4115
17:59:04.970981, 205.14, 4182
17:59:04.971003, 205.1425, 4190
17:59:04.971024, 205.145, 4171
17:59:04.977336, 205.1475, 4153
17:59:04.977366, 205.15, 4205
17:59:04.977381, 205.1525, 4213
17:59:04.977396, 205.155, 4118
17:59:05.003394, 205.1575, 4195
17:59:05.003478, 205.16, 4204
17:59:05.003503, 205.1625, 4216
17:59:05.003524, 205.165, 4215
17:59:05.003545, 205.1675, 4218
17:59:05.003929, 205.17, 4212
17:59:05.003973, 205.1725, 4123
17:59:05.003989, 205.175, 4213
17:59:05.004004, 205.1775, 4205
17:59:05.004273, 205.18, 4204
17:59:05.004299, 205.1825, 4179
17:59:05.004314, 205.185, 4191
17:59:05.004329, 205.1875, 4211
17:59:05.038777, 205.19, 4105
17:59:05.038945, 205.1925, 4176
17:59:05.038990, 205.195, 4157
17:59:05.039013, 205.1975, 4152
17:59:05.039454, 205.2, 4159
17:59:05.039486, 205.2025, 4178
17:59:05.039509, 205.205, 4155
17:59:05.039532, 205.2075, 4123
17:59:05.039915, 205.21, 4153
17:59:05.039944, 205.2125, 4174
17:59:05.039965, 205.215, 4159
17:59:05.039985, 205.2175, 4096
17:59:05.047380, 205.22, 4196
17:59:05.047417, 205.2225, 4198
17:59:05.047433, 205.225, 4124
17:59:05.047448, 205.2275, 4221
17:59:05.073400, 205.23, 4204
17:59:05.073482, 205.2325, 4188
17:59:05.073512, 205.235, 4157
17:59:05.073540, 205.2375, 4181
17:59:05.074006, 205.24, 4181
17:59:05.074036, 205.2425, 4114
17:59:05.074057, 205.245, 4189
17:59:05.074077, 205.2475, 4164
17:59:05.074097, 205.25, 4174
17:59:05.083180, 205.2525, 4188
17:59:05.083207, 205.255, 4187
17:59:05.083223, 205.2575, 4190
17:59:05.083237, 205.26, 4134
17:59:05.105151, 205.2625, 4208
17:59:05.105279, 205.265, 4154
17:59:05.105323, 205.2675, 4164
17:59:05.105361, 205.27, 4138
17:59:05.105882, 205.2725, 4156
17:59:05.105927, 205.275, 4157
17:59:05.105958, 205.2775, 4089
17:59:05.105987, 205.28, 4179
17:59:05.108883, 205.2825, 4170
17:59:05.108941, 205.285, 4169
17:59:05.108990, 205.2875, 4154
17:59:05.109036, 205.29, 4175
17:59:05.117646, 205.2925, 4175
17:59:05.117712, 205.295, 4082
17:59:05.117747, 205.2975, 4184
17:59:05.117777, 205.3, 4163
17:59:05.139659, 205.3025, 4164
17:59:05.139751, 205.305, 4139
17:59:05.139793, 205.3075, 4168
17:59:05.139828, 205.31, 4188
17:59:05.139865, 205.3125, 4126
17:59:05.143687, 205.315, 4193
17:59:05.143725, 205.3175, 4150
17:59:05.143757, 205.32, 4159
17:59:05.172381, 205.3225, 4136
17:59:05.172513, 205.325, 4162
17:59:05.172566, 205.3275, 4152
17:59:05.172605, 205.33, 4063
17:59:05.172641, 205.3325, 4154
17:59:05.173164, 205.335, 4112
17:59:05.173203, 205.3375, 4126
17:59:05.173233, 205.34, 4120
17:59:05.173263, 205.3425, 4132
17:59:05.173736, 205.345, 4130
17:59:05.173770, 205.3475, 4057
17:59:05.173800, 205.35, 4099
17:59:05.173830, 205.3525, 4096
17:59:05.205310, 205.355, 4122
17:59:05.205449, 205.3575, 4124
17:59:05.205491, 205.36, 4141
17:59:05.205525, 205.3625, 4122
17:59:05.206084, 205.365, 4061
17:59:05.206137, 205.3675, 4162
17:59:05.206169, 205.37, 4169
17:59:05.206198, 205.3725, 4180
17:59:05.206664, 205.375, 4165
17:59:05.206707, 205.3775, 4198
17:59:05.206737, 205.38, 4199
17:59:05.206767, 205.3825, 4105
17:59:05.214168, 205.385, 4193
17:59:05.214275, 205.3875, 4175
17:59:05.214339, 205.39, 4154
17:59:05.214392, 205.3925, 4166
17:59:05.238383, 205.395, 4187
17:59:05.238476, 205.3975, 4180
17:59:05.238517, 205.4, 4115
17:59:05.238596, 205.4025, 4173
17:59:05.238638, 205.405, 4190
17:59:05.239227, 205.4075, 4167
17:59:05.239281, 205.41, 4161
17:59:05.239313, 205.4125, 4174
17:59:05.239343, 205.415, 4168
17:59:05.248932, 205.4175, 4115
17:59:05.249010, 205.42, 4183
17:59:05.249054, 205.4225, 4177
17:59:05.249092, 205.425, 4190
17:59:05.272385, 205.4275, 4139
17:59:05.272519, 205.43, 4152
17:59:05.272573, 205.4325, 4148
17:59:05.272611, 205.435, 4126
17:59:05.273192, 205.4375, 4303
17:59:05.273247, 205.44, 4362
17:59:05.273279, 205.4425, 4380
17:59:05.273311, 205.445, 4425
17:59:05.274978, 205.4475, 4445
17:59:05.275023, 205.45, 4423
17:59:05.275056, 205.4525, 4188
17:59:05.275087, 205.455, 4075
17:59:05.283965, 205.4575, 3827
17:59:05.284013, 205.46, 3537
17:59:05.284044, 205.4625, 3267
17:59:05.284076, 205.465, 2950
17:59:05.307856, 205.4675, 2542
17:59:05.307920, 205.47, 2056
17:59:05.307943, 205.4725, 1913
17:59:05.307963, 205.475, 1845
17:59:05.309847, 205.4775, 2065
17:59:05.309876, 205.48, 2489
17:59:05.309892, 205.4825, 3321
17:59:05.309906, 205.485, 4287
17:59:05.318863, 205.4875, 4777
17:59:05.318927, 205.49, 5038
17:59:05.318966, 205.4925, 5022
17:59:05.319002, 205.495, 4928
17:59:05.351979, 205.4975, 4755
17:59:05.352029, 205.5, 4696
17:59:05.352051, 205.5025, 4603
17:59:05.352068, 205.505, 4483
17:59:05.352087, 205.5075, 4506
17:59:05.352422, 205.51, 4473
17:59:05.352445, 205.5125, 4467
17:59:05.352459, 205.515, 4467
17:59:05.352473, 205.5175, 4483
17:59:05.353843, 205.52, 4480
17:59:05.353886, 205.5225, 4389
17:59:05.353920, 205.525, 4481
17:59:05.353969, 205.5275, 4467
17:59:05.379479, 205.53, 4456
17:59:05.379542, 205.5325, 4427
17:59:05.379567, 205.535, 4450
17:59:05.379587, 205.5375, 4438
17:59:05.379979, 205.54, 4340
17:59:05.380007, 205.5425, 4397
17:59:05.380023, 205.545, 4397
17:59:05.380039, 205.5475, 4401
17:59:05.380301, 205.55, 4376
17:59:05.380320, 205.5525, 4366
17:59:05.380335, 205.555, 4349
17:59:05.380350, 205.5575, 4285
17:59:05.412556, 205.56, 4380
17:59:05.412755, 205.5625, 4355
17:59:05.412843, 205.565, 4335
17:59:05.412957, 205.5675, 4306
17:59:05.414698, 205.57, 4342
17:59:05.414823, 205.5725, 4330
17:59:05.414989, 205.575, 4243
17:59:05.415092, 205.5775, 4297
17:59:05.415181, 205.58, 4308
17:59:05.416624, 205.5825, 4296
17:59:05.416729, 205.585, 4190
17:59:05.416821, 205.5875, 4283
17:59:05.416907, 205.59, 4295
17:59:05.438608, 205.5925, 4201
17:59:05.438727, 205.595, 4285
17:59:05.438773, 205.5975, 4275
17:59:05.438828, 205.6, 4238
17:59:05.439401, 205.6025, 4236
17:59:05.439458, 205.605, 4236
17:59:05.439488, 205.6075, 4239
17:59:05.439519, 205.61, 4143
17:59:05.441281, 205.6125, 4239
17:59:05.441325, 205.615, 4232
17:59:05.441357, 205.6175, 4204
17:59:05.441388, 205.62, 4192
17:59:05.450157, 205.6225, 4219
17:59:05.450248, 205.625, 4207
17:59:05.450293, 205.6275, 4134
17:59:05.450332, 205.63, 4207
17:59:05.477297, 205.6325, 4192
17:59:05.477381, 205.635, 4190
17:59:05.477418, 205.6375, 4184
17:59:05.477448, 205.64, 4201
17:59:05.478471, 205.6425, 4182
17:59:05.478545, 205.645, 4101
17:59:05.478599, 205.6475, 4198
17:59:05.478650, 205.65, 4172
17:59:05.484962, 205.6525, 4178
17:59:05.484993, 205.655, 4165
17:59:05.485008, 205.6575, 4158
17:59:05.485022, 205.66, 4167
17:59:05.485035, 205.6625, 4093
17:59:05.505700, 205.665, 4171
17:59:05.505778, 205.6675, 4179
17:59:05.505800, 205.67, 4152
17:59:05.505818, 205.6725, 4146
17:59:05.506238, 205.675, 4162
17:59:05.506269, 205.6775, 4157
17:59:05.506285, 205.68, 4081
17:59:05.506299, 205.6825, 4159
17:59:05.511253, 205.685, 4164
17:59:05.511347, 205.6875, 4132
17:59:05.511405, 205.69, 4125
17:59:05.511456, 205.6925, 4149
17:59:05.519696, 205.695, 4140
17:59:05.519750, 205.6975, 4060
17:59:05.519765, 205.7, 4159
17:59:05.519779, 205.7025, 4164
17:59:05.552531, 205.705, 4178
17:59:05.552591, 205.7075, 4127
17:59:05.552614, 205.71, 4149
17:59:05.552633, 205.7125, 4156
17:59:05.553011, 205.715, 4079
17:59:05.553034, 205.7175, 4139
17:59:05.553049, 205.72, 4143
17:59:05.553063, 205.7225, 4147
17:59:05.573900, 205.725, 4097
17:59:05.573984, 205.7275, 4113
17:59:05.574058, 205.73, 4124
17:59:05.574085, 205.7325, 4046
17:59:05.574486, 205.735, 4153
17:59:05.574518, 205.7375, 4153
17:59:05.574535, 205.74, 4163
17:59:05.574552, 205.7425, 4146
17:59:05.574567, 205.745, 4129
17:59:05.574885, 205.7475, 4131
17:59:05.574913, 205.75, 4060
17:59:05.574931, 205.7525, 4151
17:59:05.574947, 205.755, 4138
17:59:05.581639, 205.7575, 4115
17:59:05.581751, 205.76, 4116
17:59:05.581809, 205.7625, 4140
17:59:05.581861, 205.765, 4142
17:59:05.607946, 205.7675, 4074
17:59:05.608036, 205.77, 4155
17:59:05.608073, 205.7725, 4164
17:59:05.608110, 205.775, 4189
17:59:05.608667, 205.7775, 4165
17:59:05.608711, 205.78, 4194
17:59:05.608741, 205.7825, 4198
17:59:05.608768, 205.785, 4127
17:59:05.616269, 205.7875, 4208
17:59:05.616327, 205.79, 4192
17:59:05.616357, 205.7925, 4177
17:59:05.616383, 205.795, 4184
17:59:05.640639, 205.7975, 4218
17:59:05.640761, 205.8, 4227
17:59:05.640818, 205.8025, 4154
17:59:05.640870, 205.805, 4260
17:59:05.641778, 205.8075, 4261
17:59:05.641877, 205.81, 4253
17:59:05.641943, 205.8125, 4251
17:59:05.641985, 205.815, 4286
17:59:05.651266, 205.8175, 4255
17:59:05.651328, 205.82, 4186
17:59:05.651365, 205.8225, 4274
17:59:05.651400, 205.825, 4250
17:59:05.674500, 205.8275, 4247
17:59:05.674716, 205.83, 4228
17:59:05.674765, 205.8325, 4249
17:59:05.674790, 205.835, 4251
17:59:05.675385, 205.8375, 4159
17:59:05.675451, 205.84, 4255
17:59:05.675481, 205.8425, 4239
17:59:05.675505, 205.845, 4222
17:59:05.677491, 205.8475, 4206
17:59:05.677530, 205.85, 4252
17:59:05.677554, 205.8525, 4238
17:59:05.677577, 205.855, 4158
17:59:05.686516, 205.8575, 4241
17:59:05.686559, 205.86, 4255
17:59:05.686583, 205.8625, 4247
17:59:05.686606, 205.865, 4223
17:59:05.711075, 205.8675, 4257
17:59:05.711265, 205.87, 4225
17:59:05.711338, 205.8725, 4154
17:59:05.711411, 205.875, 4219
17:59:05.712520, 205.8775, 4219
17:59:05.712600, 205.88, 4223
17:59:05.712653, 205.8825, 4211
17:59:05.712704, 205.885, 4194
17:59:05.712756, 205.8875, 4196
17:59:05.720964, 205.89, 4126
17:59:05.721000, 205.8925, 4203
17:59:05.721029, 205.895, 4195
17:59:05.721063, 205.8975, 4187
17:59:05.741767, 205.9, 4170
17:59:05.741874, 205.9025, 4190
17:59:05.741907, 205.905, 4183
17:59:05.741936, 205.9075, 4108
17:59:05.742475, 205.91, 4205
17:59:05.742517, 205.9125, 4199
17:59:05.742539, 205.915, 4201
17:59:05.742569, 205.9175, 4212
17:59:05.747358, 205.92, 4228
17:59:05.747390, 205.9225, 4213
17:59:05.747405, 205.925, 4116
17:59:05.747419, 205.9275, 4194
17:59:05.757076, 205.93, 4202
17:59:05.757149, 205.9325, 4187
17:59:05.757186, 205.935, 4189
17:59:05.757252, 205.9375, 4192
17:59:05.784884, 205.94, 4213
17:59:05.784988, 205.9425, 4134
17:59:05.785033, 205.945, 4233
17:59:05.785074, 205.9475, 4214
17:59:05.785770, 205.95, 4206
17:59:05.785812, 205.9525, 4196
17:59:05.785847, 205.955, 4234
17:59:05.785881, 205.9575, 4190
17:59:05.785913, 205.96, 4130
17:59:05.809143, 205.9625, 4192
17:59:05.809267, 205.965, 4177
17:59:05.809313, 205.9675, 4182
17:59:05.809346, 205.97, 4175
17:59:05.810116, 205.9725, 4198
17:59:05.810181, 205.975, 4209
17:59:05.810213, 205.9775, 4136
17:59:05.810241, 205.98, 4214
17:59:05.810767, 205.9825, 4192
17:59:05.810805, 205.985, 4170
17:59:05.810833, 205.9875, 4160
17:59:05.810905, 205.99, 4200
17:59:05.817340, 205.9925, 4200
17:59:05.817365, 205.995, 4101
17:59:05.817381, 205.9975, 4197
17:59:05.817394, 206.0, 4206
17:59:05.855844, 206.0025, 4204
17:59:05.855922, 206.005, 4181
17:59:05.855958, 206.0075, 4199
17:59:05.855992, 206.01, 4200
17:59:05.856831, 206.0125, 4098
17:59:05.856888, 206.015, 4193
17:59:05.857004, 206.0175, 4161
17:59:05.857042, 206.02, 4167
17:59:05.858001, 206.0225, 4146
17:59:05.858047, 206.025, 4169
17:59:05.858068, 206.0275, 4158
17:59:05.858088, 206.03, 4093
17:59:05.876886, 206.0325, 4174
17:59:05.876953, 206.035, 4180
17:59:05.876983, 206.0375, 4167
17:59:05.877010, 206.04, 4141
17:59:05.881295, 206.0425, 4170
17:59:05.881336, 206.045, 4156
17:59:05.881357, 206.0475, 4076
17:59:05.881376, 206.05, 4154
17:59:05.882591, 206.0525, 4157
17:59:05.882662, 206.055, 4149
17:59:05.882781, 206.0575, 4155
17:59:05.882859, 206.06, 4181
17:59:05.900264, 206.0625, 4184
17:59:05.900415, 206.065, 4101
17:59:05.900456, 206.0675, 4183
17:59:05.900488, 206.07, 4186
17:59:05.905208, 206.0725, 4167
17:59:05.905277, 206.075, 4174
17:59:05.905321, 206.0775, 4161
17:59:05.905362, 206.08, 4140
17:59:05.905403, 206.0825, 4067
17:59:05.929089, 206.085, 4181
17:59:05.929150, 206.0875, 4179
17:59:05.929185, 206.09, 4182
17:59:05.929273, 206.0925, 4165
17:59:05.933881, 206.095, 4196
17:59:05.933962, 206.0975, 4199
17:59:05.934013, 206.1, 4104
17:59:05.934059, 206.1025, 4180
17:59:05.935009, 206.105, 4156
17:59:05.935032, 206.1075, 4141
17:59:05.935047, 206.11, 4122
17:59:05.935062, 206.1125, 4150
17:59:05.940585, 206.115, 4165
17:59:05.940628, 206.1175, 4070
17:59:05.940647, 206.12, 4172
17:59:05.940665, 206.1225, 4199
17:59:05.961178, 206.125, 4186
17:59:05.961256, 206.1275, 4173
17:59:05.961286, 206.13, 4183
17:59:05.961313, 206.1325, 4187
17:59:05.992384, 206.135, 4107
17:59:05.992501, 206.1375, 4176
17:59:05.992530, 206.14, 4187
17:59:05.992569, 206.1425, 4181
17:59:05.993070, 206.145, 4176
17:59:05.993118, 206.1475, 4216
17:59:05.993143, 206.15, 4183
17:59:05.993166, 206.1525, 4110
17:59:05.993580, 206.155, 4178
17:59:05.993615, 206.1575, 4179
17:59:05.993639, 206.16, 4177
17:59:05.993663, 206.1625, 4112
17:59:05.993685, 206.165, 4197
17:59:05.994093, 206.1675, 4191
17:59:05.994124, 206.17, 4101
17:59:05.994147, 206.1725, 4164
17:59:05.994170, 206.175, 4184
17:59:06.001262, 206.1775, 4160
17:59:06.001336, 206.18, 4154
17:59:06.001379, 206.1825, 4160
17:59:06.001429, 206.185, 4173
17:59:06.028405, 206.1875, 4082
17:59:06.028470, 206.19, 4173
17:59:06.028493, 206.1925, 4180
17:59:06.028514, 206.195, 4188
17:59:06.028841, 206.1975, 4174
17:59:06.028862, 206.2, 4177
17:59:06.028877, 206.2025, 4164
17:59:06.028892, 206.205, 4090
17:59:06.036598, 206.2075, 4179
17:59:06.036699, 206.21, 4175
17:59:06.036756, 206.2125, 4171
17:59:06.036807, 206.215, 4152
17:59:06.061036, 206.2175, 4185
17:59:06.061125, 206.22, 4182
17:59:06.061151, 206.2225, 4109
17:59:06.061171, 206.225, 4153
17:59:06.061543, 206.2275, 4159
17:59:06.061567, 206.23, 4165
17:59:06.061583, 206.2325, 4151
17:59:06.061599, 206.235, 4172
17:59:06.071021, 206.2375, 4152
17:59:06.071065, 206.24, 4066
17:59:06.071082, 206.2425, 4152
17:59:06.071097, 206.245, 4148
17:59:06.071113, 206.2475, 4150
17:59:06.095511, 206.25, 4143
17:59:06.095637, 206.2525, 4155
17:59:06.095703, 206.255, 4142
17:59:06.095763, 206.2575, 4059
17:59:06.096854, 206.26, 4164
17:59:06.096929, 206.2625, 4192
17:59:06.096988, 206.265, 4161
17:59:06.097046, 206.2675, 4154
17:59:06.097995, 206.27, 4186
17:59:06.098063, 206.2725, 4184
17:59:06.098124, 206.275, 4097
17:59:06.098180, 206.2775, 4194
17:59:06.106106, 206.28, 4189
17:59:06.106138, 206.2825, 4175
17:59:06.106155, 206.285, 4150
17:59:06.106169, 206.2875, 4172
17:59:06.127062, 206.29, 4161
17:59:06.127191, 206.2925, 4103
17:59:06.127234, 206.295, 4184
17:59:06.127272, 206.2975, 4202
17:59:06.132535, 206.3, 4182
17:59:06.132594, 206.3025, 4169
17:59:06.132627, 206.305, 4162
17:59:06.132657, 206.3075, 4179
17:59:06.132685, 206.31, 4096
17:59:06.159648, 206.3125, 4174
17:59:06.159760, 206.315, 4159
17:59:06.159802, 206.3175, 4172
17:59:06.159908, 206.32, 4150
17:59:06.161073, 206.3225, 4197
17:59:06.161134, 206.325, 4193
17:59:06.161167, 206.3275, 4126
17:59:06.161198, 206.33, 4195
17:59:06.162143, 206.3325, 4179
17:59:06.162185, 206.335, 4179
17:59:06.162216, 206.3375, 4154
17:59:06.162247, 206.34, 4169
17:59:06.167973, 206.3425, 4170
17:59:06.168049, 206.345, 4096
17:59:06.168110, 206.3475, 4195
17:59:06.168171, 206.35, 4170
17:59:06.197894, 206.3525, 4129
17:59:06.197952, 206.355, 4104
17:59:06.198006, 206.3575, 4145
17:59:06.198028, 206.36, 4171
17:59:06.198338, 206.3625, 4093
17:59:06.198360, 206.365, 4152
17:59:06.198377, 206.3675, 4161
17:59:06.198392, 206.37, 4164
17:59:06.202897, 206.3725, 4133
17:59:06.202994, 206.375, 4140
17:59:06.203047, 206.3775, 4135
17:59:06.203093, 206.38, 4094
17:59:06.230777, 206.3825, 4195
17:59:06.230885, 206.385, 4197
17:59:06.230913, 206.3875, 4194
17:59:06.230935, 206.39, 4157
17:59:06.230954, 206.3925, 4163
17:59:06.231356, 206.395, 4134
17:59:06.231436, 206.3975, 4038
17:59:06.231495, 206.4, 4141
17:59:06.231549, 206.4025, 4136
17:59:06.237718, 206.405, 4138
17:59:06.237779, 206.4075, 4134
17:59:06.237820, 206.41, 4147
17:59:06.237857, 206.4125, 4120
17:59:06.262120, 206.415, 4064
17:59:06.262212, 206.4175, 4143
17:59:06.262249, 206.42, 4136
17:59:06.262282, 206.4225, 4139
17:59:06.262875, 206.425, 4132
17:59:06.262928, 206.4275, 4160
17:59:06.262960, 206.43, 4174
17:59:06.262989, 206.4325, 4118
17:59:06.263714, 206.435, 4186
17:59:06.263752, 206.4375, 4185
17:59:06.263783, 206.44, 4193
17:59:06.263812, 206.4425, 4169
17:59:06.272313, 206.445, 4152
17:59:06.272339, 206.4475, 4159
17:59:06.272354, 206.45, 4103
17:59:06.272368, 206.4525, 4205
17:59:06.294599, 206.455, 4201
17:59:06.294682, 206.4575, 4172
17:59:06.294704, 206.46, 4166
17:59:06.294724, 206.4625, 4175
17:59:06.294759, 206.465, 4157
17:59:06.298463, 206.4675, 4054
17:59:06.298490, 206.47, 4147
17:59:06.298506, 206.4725, 4131
17:59:06.298520, 206.475, 4133
17:59:06.307337, 206.4775, 4162
17:59:06.307360, 206.48, 4175
17:59:06.307375, 206.4825, 4166
17:59:06.307388, 206.485, 4091
17:59:06.329724, 206.4875, 4170
17:59:06.329785, 206.49, 4160
17:59:06.329809, 206.4925, 4158
17:59:06.329830, 206.495, 4181
17:59:06.330174, 206.4975, 4292
17:59:06.330195, 206.5, 4341
17:59:06.330210, 206.5025, 4331
17:59:06.330225, 206.505, 4439
17:59:06.334104, 206.5075, 4467
17:59:06.334187, 206.51, 4489
17:59:06.334242, 206.5125, 4371
17:59:06.334293, 206.515, 4243
17:59:06.365047, 206.5175, 4035
17:59:06.365137, 206.52, 3685
17:59:06.365166, 206.5225, 3436
17:59:06.365191, 206.525, 3106
17:59:06.365621, 206.5275, 2684
17:59:06.365651, 206.53, 2154
17:59:06.365670, 206.5325, 1841
17:59:06.365689, 206.535, 1724
17:59:06.365707, 206.5375, 1771
17:59:06.368492, 206.54, 2186
17:59:06.368517, 206.5425, 2964
17:59:06.368534, 206.545, 3871
17:59:06.368550, 206.5475, 4541
17:59:06.394225, 206.55, 4875
17:59:06.394336, 206.5525, 4945
17:59:06.394367, 206.555, 4798
17:59:06.394482, 206.5575, 4740
17:59:06.397245, 206.56, 4619
17:59:06.397294, 206.5625, 4567
17:59:06.397320, 206.565, 4552
17:59:06.397344, 206.5675, 4544
17:59:06.398332, 206.57, 4516
17:59:06.398363, 206.5725, 4466
17:59:06.398386, 206.575, 4515
17:59:06.398409, 206.5775, 4522
17:59:06.428746, 206.58, 4539
17:59:06.428843, 206.5825, 4472
17:59:06.428877, 206.585, 4561
17:59:06.428902, 206.5875, 4545
17:59:06.429436, 206.59, 4424
17:59:06.429483, 206.5925, 4493
17:59:06.429506, 206.595, 4499
17:59:06.429526, 206.5975, 4477
17:59:06.440731, 206.6, 4442
17:59:06.440766, 206.6025, 4463
17:59:06.440781, 206.605, 4446
17:59:06.440795, 206.6075, 4344
17:59:06.443694, 206.61, 4432
17:59:06.443776, 206.6125, 4448
17:59:06.443816, 206.615, 4408
17:59:06.444000, 206.6175, 4406
17:59:06.463868, 206.62, 4394
17:59:06.463961, 206.6225, 4380
17:59:06.463997, 206.625, 4273
17:59:06.464029, 206.6275, 4358
17:59:06.464058, 206.63, 4356
17:59:06.464590, 206.6325, 4342
17:59:06.464625, 206.635, 4310
17:59:06.464649, 206.6375, 4328
17:59:06.464673, 206.64, 4339
17:59:06.474251, 206.6425, 4238
17:59:06.474352, 206.645, 4315
17:59:06.474410, 206.6475, 4323
17:59:06.474461, 206.65, 4292
17:59:06.496020, 206.6525, 4291
17:59:06.496083, 206.655, 4279
17:59:06.496107, 206.6575, 4290
17:59:06.496127, 206.66, 4214
17:59:06.496472, 206.6625, 4280
17:59:06.496495, 206.665, 4255
17:59:06.496510, 206.6675, 4252
17:59:06.496525, 206.67, 4220
17:59:06.499847, 206.6725, 4238
17:59:06.499895, 206.675, 4245
17:59:06.499919, 206.6775, 4177
17:59:06.499940, 206.68, 4221
17:59:06.532553, 206.6825, 4235
17:59:06.532643, 206.685, 4230
17:59:06.532669, 206.6875, 4240
17:59:06.532702, 206.69, 4247
17:59:06.533005, 206.6925, 4256
17:59:06.533029, 206.695, 4151
17:59:06.533045, 206.6975, 4216
17:59:06.533060, 206.7, 4225
17:59:06.534715, 206.7025, 4234
17:59:06.534738, 206.705, 4209
17:59:06.534754, 206.7075, 4216
17:59:06.534768, 206.71, 4228
17:59:06.534810, 206.7125, 4131
17:59:06.544381, 206.715, 4221
17:59:06.544511, 206.7175, 4224
17:59:06.544576, 206.72, 4198
17:59:06.544613, 206.7225, 4162
17:59:06.565548, 206.725, 4201
17:59:06.565606, 206.7275, 4211
17:59:06.565656, 206.73, 4120
17:59:06.565677, 206.7325, 4214
17:59:06.565967, 206.735, 4231
17:59:06.565989, 206.7375, 4205
17:59:06.566003, 206.74, 4185
17:59:06.566018, 206.7425, 4216
17:59:06.569727, 206.745, 4218
17:59:06.569753, 206.7475, 4139
17:59:06.569768, 206.75, 4217
17:59:06.569782, 206.7525, 4190
17:59:06.595236, 206.755, 4178
17:59:06.595348, 206.7575, 4165
17:59:06.595386, 206.76, 4182
17:59:06.595476, 206.7625, 4195
17:59:06.596222, 206.765, 4111
17:59:06.596277, 206.7675, 4180
17:59:06.596299, 206.77, 4189
17:59:06.596320, 206.7725, 4188
17:59:06.605158, 206.775, 4164
17:59:06.605227, 206.7775, 4170
17:59:06.605268, 206.78, 4184
17:59:06.605306, 206.7825, 4111
17:59:06.628658, 206.785, 4206
17:59:06.628751, 206.7875, 4174
17:59:06.628797, 206.79, 4184
17:59:06.628819, 206.7925, 4178
17:59:06.629165, 206.795, 4179
17:59:06.629215, 206.7975, 4193
17:59:06.629231, 206.8, 4123
17:59:06.629246, 206.8025, 4207
17:59:06.631254, 206.805, 4202
17:59:06.631300, 206.8075, 4180
17:59:06.631325, 206.81, 4140
17:59:06.631349, 206.8125, 4145
17:59:06.666613, 206.815, 4157
17:59:06.666672, 206.8175, 4082
17:59:06.666692, 206.82, 4126
17:59:06.666710, 206.8225, 4115
17:59:06.666743, 206.825, 4140
17:59:06.667169, 206.8275, 4096
17:59:06.667244, 206.83, 4114
17:59:06.667293, 206.8325, 4072
17:59:06.667338, 206.835, 4020
17:59:06.668144, 206.8375, 4100
17:59:06.668204, 206.84, 4112
17:59:06.668250, 206.8425, 4096
17:59:06.668295, 206.845, 4099
17:59:06.675167, 206.8475, 4121
17:59:06.675236, 206.85, 4109
17:59:06.675281, 206.8525, 4028
17:59:06.675323, 206.855, 4130
17:59:06.710399, 206.8575, 4120
17:59:06.710468, 206.86, 4116
17:59:06.710492, 206.8625, 4116
17:59:06.710512, 206.865, 4152
17:59:06.711653, 206.8675, 4159
17:59:06.711750, 206.87, 4100
17:59:06.711781, 206.8725, 4187
17:59:06.711807, 206.875, 4175
17:59:06.712864, 206.8775, 4125
17:59:06.712892, 206.88, 4125
17:59:06.712910, 206.8825, 4160
17:59:06.712935, 206.885, 4160
17:59:06.712952, 206.8875, 4080
17:59:06.736611, 206.89, 4166
17:59:06.736671, 206.8925, 4165
17:59:06.736739, 206.895, 4180
17:59:06.736762, 206.8975, 4177
17:59:06.737651, 206.9, 4188
17:59:06.737724, 206.9025, 4194
17:59:06.737775, 206.905, 4106
17:59:06.737837, 206.9075, 4201
17:59:06.739111, 206.91, 4193
17:59:06.739147, 206.9125, 4176
17:59:06.739192, 206.915, 4166
17:59:06.739209, 206.9175, 4187
17:59:06.756952, 206.92, 4191
17:59:06.757016, 206.9225, 4109
17:59:06.757044, 206.925, 4203
17:59:06.757069, 206.9275, 4200
17:59:06.778821, 206.93, 4189
17:59:06.778905, 206.9325, 4161
17:59:06.778929, 206.935, 4169
17:59:06.778948, 206.9375, 4193
17:59:06.779467, 206.94, 4099
17:59:06.779501, 206.9425, 4181
17:59:06.779517, 206.945, 4181
17:59:06.779532, 206.9475, 4182
17:59:06.780291, 206.95, 4174
17:59:06.780366, 206.9525, 4174
17:59:06.780419, 206.955, 4169
17:59:06.780505, 206.9575, 4102
17:59:06.788701, 206.96, 4181
17:59:06.788741, 206.9625, 4165
17:59:06.788756, 206.965, 4168
17:59:06.788770, 206.9675, 4163
17:59:06.814031, 206.97, 4201
17:59:06.814165, 206.9725, 4187
17:59:06.814263, 206.975, 4124
17:59:06.814310, 206.9775, 4207
17:59:06.814368, 206.98, 4208
17:59:06.814970, 206.9825, 4180
17:59:06.815013, 206.985, 4200
17:59:06.815037, 206.9875, 4177
17:59:06.815060, 206.99, 4200
17:59:06.823577, 206.9925, 4130
17:59:06.823608, 206.995, 4200
17:59:06.823624, 206.9975, 4180
17:59:06.823639, 207.0, 4175
17:59:06.847818, 207.0025, 4165
17:59:06.847970, 207.005, 4203
17:59:06.848013, 207.0075, 4230
17:59:06.848047, 207.01, 4148
17:59:06.848608, 207.0125, 4213
17:59:06.848667, 207.015, 4201
17:59:06.848692, 207.0175, 4182
17:59:06.848716, 207.02, 4166
17:59:06.849857, 207.0225, 4203
17:59:06.849900, 207.025, 4188
17:59:06.849924, 207.0275, 4101
17:59:06.849947, 207.03, 4183
17:59:06.858979, 207.0325, 4159
17:59:06.859065, 207.035, 4180
17:59:06.859082, 207.0375, 4153
17:59:06.859125, 207.04, 4178
17:59:06.879623, 207.0425, 4166
17:59:06.879705, 207.045, 4085
17:59:06.879777, 207.0475, 4179
17:59:06.879801, 207.05, 4172
17:59:06.897320, 207.0525, 4156
17:59:06.897428, 207.055, 4177
17:59:06.897467, 207.0575, 4206
17:59:06.897501, 207.06, 4208
17:59:06.897532, 207.0625, 4115
17:59:06.899531, 207.065, 4203
17:59:06.899580, 207.0675, 4210
17:59:06.899996, 207.07, 4194
17:59:06.900027, 207.0725, 4181
17:59:06.926758, 207.075, 4218
17:59:06.926826, 207.0775, 4197
17:59:06.926862, 207.08, 4128
17:59:06.926889, 207.0825, 4194
17:59:06.927605, 207.085, 4187
17:59:06.927649, 207.0875, 4173
17:59:06.927675, 207.09, 4171
17:59:06.927701, 207.0925, 4184
17:59:06.928976, 207.095, 4222
17:59:06.929042, 207.0975, 4142
17:59:06.929075, 207.1, 4226
17:59:06.929099, 207.1025, 4206
17:59:06.953252, 207.105, 4180
17:59:06.953393, 207.1075, 4168
17:59:06.953451, 207.11, 4171
17:59:06.953482, 207.1125, 4176
17:59:06.956939, 207.115, 4097
17:59:06.956971, 207.1175, 4164
17:59:06.956986, 207.12, 4192
17:59:06.957000, 207.1225, 4180
17:59:06.958172, 207.125, 4181
17:59:06.958192, 207.1275, 4186
17:59:06.958206, 207.13, 4151
17:59:06.958219, 207.1325, 4081
17:59:06.981275, 207.135, 4177
17:59:06.981441, 207.1375, 4160
17:59:06.981478, 207.14, 4166
17:59:06.981522, 207.1425, 4094
17:59:06.981552, 207.145, 4178
17:59:06.982152, 207.1475, 4185
17:59:06.982204, 207.15, 4073
17:59:06.982226, 207.1525, 4166
17:59:06.982247, 207.155, 4163
17:59:06.982614, 207.1575, 4186
17:59:06.982643, 207.16, 4146
17:59:06.982664, 207.1625, 4158
17:59:06.982684, 207.165, 4144
17:59:07.013814, 207.1675, 4096
17:59:07.013895, 207.17, 4198
17:59:07.013921, 207.1725, 4184
17:59:07.013942, 207.175, 4176
17:59:07.014387, 207.1775, 4164
17:59:07.014425, 207.18, 4170
17:59:07.014441, 207.1825, 4159
17:59:07.014468, 207.185, 4092
17:59:07.016157, 207.1875, 4181
17:59:07.016213, 207.19, 4182
17:59:07.016238, 207.1925, 4181
17:59:07.016263, 207.195, 4145
17:59:07.025240, 207.1975, 4178
17:59:07.025327, 207.2, 4167
17:59:07.025377, 207.2025, 4085
17:59:07.025421, 207.205, 4160
17:59:07.048132, 207.2075, 4173
17:59:07.048193, 207.21, 4156
17:59:07.048218, 207.2125, 4138
17:59:07.048238, 207.215, 4166
17:59:07.051139, 207.2175, 4162
17:59:07.051208, 207.22, 4090
17:59:07.051246, 207.2225, 4162
17:59:07.051280, 207.225, 4195
17:59:07.060158, 207.2275, 4182
17:59:07.060211, 207.23, 4164
17:59:07.060247, 207.2325, 4179
17:59:07.060281, 207.235, 4174
17:59:07.060314, 207.2375, 4088
17:59:07.081489, 207.24, 4176
17:59:07.081616, 207.2425, 4134
17:59:07.081653, 207.245, 4150
17:59:07.081685, 207.2475, 4146
17:59:07.082317, 207.25, 4166
17:59:07.082374, 207.2525, 4176
17:59:07.082399, 207.255, 4110
17:59:07.082422, 207.2575, 4206
17:59:07.086212, 207.26, 4192
17:59:07.086254, 207.2625, 4173
17:59:07.086278, 207.265, 4170
17:59:07.086300, 207.2675, 4189
17:59:07.095131, 207.27, 4171
17:59:07.095199, 207.2725, 4071
17:59:07.095230, 207.275, 4162
17:59:07.095258, 207.2775, 4172
17:59:07.118090, 207.28, 4153
17:59:07.118177, 207.2825, 4135
17:59:07.118217, 207.285, 4147
17:59:07.118304, 207.2875, 4159
17:59:07.121181, 207.29, 4141
17:59:07.121223, 207.2925, 4179
17:59:07.121252, 207.295, 4170
17:59:07.121279, 207.2975, 4176
17:59:07.130313, 207.3, 4147
17:59:07.130377, 207.3025, 4184
17:59:07.130396, 207.305, 4170
17:59:07.130412, 207.3075, 4112
17:59:07.151448, 207.31, 4191
17:59:07.151573, 207.3125, 4182
17:59:07.151626, 207.315, 4173
17:59:07.151663, 207.3175, 4174
17:59:07.151693, 207.32, 4196
17:59:07.152450, 207.3225, 4194
17:59:07.152507, 207.325, 4131
17:59:07.152545, 207.3275, 4202
17:59:07.152582, 207.33, 4204
17:59:07.183127, 207.3325, 4173
17:59:07.183212, 207.335, 4162
17:59:07.183236, 207.3375, 4198
17:59:07.183255, 207.34, 4181
17:59:07.183651, 207.3425, 4125
17:59:07.183688, 207.345, 4193
17:59:07.183705, 207.3475, 4200
17:59:07.183719, 207.35, 4185
17:59:07.183963, 207.3525, 4156
17:59:07.183982, 207.355, 4183
17:59:07.183996, 207.3575, 4151
17:59:07.184009, 207.36, 4091
17:59:07.214965, 207.3625, 4157
17:59:07.215077, 207.365, 4203
17:59:07.215121, 207.3675, 4168
17:59:07.215215, 207.37, 4156
17:59:07.215283, 207.3725, 4176
17:59:07.215981, 207.375, 4164
17:59:07.216039, 207.3775, 4097
17:59:07.216069, 207.38, 4164
17:59:07.216097, 207.3825, 4154
17:59:07.217554, 207.385, 4158
17:59:07.217603, 207.3875, 4086
17:59:07.217632, 207.39, 4194
17:59:07.217660, 207.3925, 4188
17:59:07.226327, 207.395, 4107
17:59:07.226392, 207.3975, 4182
17:59:07.226433, 207.4, 4172
17:59:07.226471, 207.4025, 4142
17:59:07.251750, 207.405, 4139
17:59:07.251816, 207.4075, 4147
17:59:07.251839, 207.41, 4149
17:59:07.251860, 207.4125, 4078
17:59:07.252216, 207.415, 4164
17:59:07.252243, 207.4175, 4170
17:59:07.252259, 207.42, 4181
17:59:07.252273, 207.4225, 4164
17:59:07.252542, 207.425, 4169
17:59:07.252561, 207.4275, 4161
17:59:07.252577, 207.43, 4084
17:59:07.252592, 207.4325, 4169
17:59:07.261338, 207.435, 4159
17:59:07.261407, 207.4375, 4151
17:59:07.261447, 207.44, 4139
17:59:07.261484, 207.4425, 4164
17:59:07.282480, 207.445, 4172
17:59:07.282563, 207.4475, 4098
17:59:07.282692, 207.45, 4186
17:59:07.282736, 207.4525, 4169
17:59:07.287671, 207.455, 4183
17:59:07.287745, 207.4575, 4170
17:59:07.287782, 207.46, 4175
17:59:07.287816, 207.4625, 4171
17:59:07.287850, 207.465, 4091
17:59:07.296429, 207.4675, 4172
17:59:07.296482, 207.47, 4165
17:59:07.296512, 207.4725, 4165
17:59:07.296532, 207.475, 4112
17:59:07.316250, 207.4775, 4140
17:59:07.316376, 207.48, 4139
17:59:07.316417, 207.4825, 4071
17:59:07.316451, 207.485, 4145
17:59:07.317085, 207.4875, 4143
17:59:07.317140, 207.49, 4135
17:59:07.317167, 207.4925, 4133
17:59:07.317191, 207.495, 4153
17:59:07.323026, 207.4975, 4129
17:59:07.323109, 207.5, 4065
17:59:07.323172, 207.5025, 4150
17:59:07.323223, 207.505, 4161
17:59:07.349021, 207.5075, 4153
17:59:07.349122, 207.51, 4152
17:59:07.349154, 207.5125, 4164
17:59:07.349181, 207.515, 4154
17:59:07.349707, 207.5175, 4107
17:59:07.349762, 207.52, 4208
17:59:07.349785, 207.5225, 4218
17:59:07.349805, 207.525, 4192
17:59:07.357480, 207.5275, 4187
17:59:07.357548, 207.53, 4222
17:59:07.357580, 207.5325, 4181
17:59:07.357611, 207.535, 4074
17:59:07.382593, 207.5375, 4164
17:59:07.382683, 207.54, 4158
17:59:07.382708, 207.5425, 4148
17:59:07.382729, 207.545, 4174
17:59:07.383275, 207.5475, 4185
17:59:07.383327, 207.55, 4189
17:59:07.383349, 207.5525, 4101
17:59:07.383369, 207.555, 4179
17:59:07.383733, 207.5575, 4189
17:59:07.383766, 207.56, 4178
17:59:07.383787, 207.5625, 4180
17:59:07.383807, 207.565, 4191
17:59:07.419735, 207.5675, 4196
17:59:07.419840, 207.57, 4093
17:59:07.419879, 207.5725, 4166
17:59:07.419909, 207.575, 4167
17:59:07.419957, 207.5775, 4164
17:59:07.420570, 207.58, 4178
17:59:07.420610, 207.5825, 4233
17:59:07.420638, 207.585, 4315
17:59:07.420666, 207.5875, 4272
17:59:07.421148, 207.59, 4394
17:59:07.421183, 207.5925, 4421
17:59:07.421210, 207.595, 4426
17:59:07.421237, 207.5975, 4399
17:59:07.427994, 207.6, 4296
17:59:07.428090, 207.6025, 4123
17:59:07.428147, 207.605, 3841
17:59:07.428199, 207.6075, 3634
17:59:07.455035, 207.61, 3349
17:59:07.455123, 207.6125, 2978
17:59:07.455170, 207.615, 2566
17:59:07.455207, 207.6175, 2134
17:59:07.455900, 207.62, 1908
17:59:07.455945, 207.6225, 1814
17:59:07.455978, 207.625, 2045
17:59:07.456009, 207.6275, 2522
17:59:07.462643, 207.63, 3341
17:59:07.462691, 207.6325, 4181
17:59:07.462724, 207.635, 4715
17:59:07.462756, 207.6375, 4917
17:59:07.483671, 207.64, 4851
17:59:07.483792, 207.6425, 4848
17:59:07.483849, 207.645, 4693
17:59:07.483897, 207.6475, 4589
17:59:07.484644, 207.65, 4510
17:59:07.484727, 207.6525, 4528
17:59:07.484760, 207.655, 4474
17:59:07.484783, 207.6575, 4380
17:59:07.488884, 207.66, 4469
17:59:07.488950, 207.6625, 4464
17:59:07.488983, 207.665, 4463
17:59:07.489014, 207.6675, 4455
17:59:07.489044, 207.67, 4468
17:59:07.499276, 207.6725, 4470
17:59:07.516475, 207.675, 4372
17:59:07.516590, 207.6775, 4470
17:59:07.516631, 207.68, 4460
17:59:07.526262, 207.6825, 4446
17:59:07.526342, 207.685, 4435
17:59:07.526387, 207.6875, 4436
17:59:07.526427, 207.69, 4438
17:59:07.527376, 207.6925, 4360
17:59:07.527427, 207.695, 4420
17:59:07.527510, 207.6975, 4407
17:59:07.527554, 207.7, 4374
17:59:07.549853, 207.7025, 4348
17:59:07.549943, 207.705, 4360
17:59:07.549982, 207.7075, 4342
17:59:07.550069, 207.71, 4264
17:59:07.550569, 207.7125, 4352
17:59:07.550624, 207.715, 4337
17:59:07.550653, 207.7175, 4345
17:59:07.550680, 207.72, 4315
17:59:07.551248, 207.7225, 4306
17:59:07.551299, 207.725, 4303
17:59:07.551335, 207.7275, 4215
17:59:07.551370, 207.73, 4275
17:59:07.558585, 207.7325, 4298
17:59:07.558634, 207.735, 4277
17:59:07.558661, 207.7375, 4272
17:59:07.558685, 207.74, 4268
17:59:07.583756, 207.7425, 4246
17:59:07.583867, 207.745, 4189
17:59:07.583922, 207.7475, 4262
17:59:07.584000, 207.75, 4269
17:59:07.585185, 207.7525, 4269
17:59:07.585248, 207.755, 4251
17:59:07.585286, 207.7575, 4249
17:59:07.585322, 207.76, 4206
17:59:07.585358, 207.7625, 4161
17:59:07.627876, 207.765, 4268
17:59:07.627936, 207.7675, 4233
17:59:07.627963, 207.77, 4214
17:59:07.627987, 207.7725, 4206
17:59:07.629068, 207.775, 4240
17:59:07.629097, 207.7775, 4220
17:59:07.629121, 207.78, 4133
17:59:07.629145, 207.7825, 4201
17:59:07.630316, 207.785, 4190
17:59:07.630345, 207.7875, 4195
17:59:07.630370, 207.79, 4170
17:59:07.630394, 207.7925, 4200
17:59:07.650779, 207.795, 4179
17:59:07.650898, 207.7975, 4113
17:59:07.650962, 207.8, 4206
17:59:07.651012, 207.8025, 4190
17:59:07.651952, 207.805, 4186
17:59:07.652026, 207.8075, 4075
17:59:07.652069, 207.81, 4222
17:59:07.652109, 207.8125, 4225
17:59:07.652146, 207.815, 4111
17:59:07.652800, 207.8175, 4178
17:59:07.652848, 207.82, 4157
17:59:07.652885, 207.8225, 4199
17:59:07.652924, 207.825, 4168
17:59:07.655429, 207.8275, 4185
17:59:07.655533, 207.83, 4191
17:59:07.655619, 207.8325, 4114
17:59:07.655698, 207.835, 4165
17:59:07.663703, 207.8375, 4157
17:59:07.663750, 207.84, 4164
17:59:07.663775, 207.8425, 4143
17:59:07.663798, 207.845, 4169
17:59:07.684469, 207.8475, 4158
17:59:07.684557, 207.85, 4115
17:59:07.684595, 207.8525, 4190
17:59:07.684641, 207.855, 4193
17:59:07.690233, 207.8575, 4182
17:59:07.690295, 207.86, 4165
17:59:07.690329, 207.8625, 4176
17:59:07.690361, 207.865, 4179
17:59:07.717397, 207.8675, 4094
17:59:07.717533, 207.87, 4192
17:59:07.717570, 207.8725, 4177
17:59:07.717601, 207.875, 4172
17:59:07.718109, 207.8775, 4159
17:59:07.718152, 207.88, 4170
17:59:07.718177, 207.8825, 4180
17:59:07.718202, 207.885, 4109
17:59:07.718623, 207.8875, 4180
17:59:07.718658, 207.89, 4145
17:59:07.718683, 207.8925, 4141
17:59:07.718706, 207.895, 4138
17:59:07.724873, 207.8975, 4167
17:59:07.724922, 207.9, 4145
17:59:07.724955, 207.9025, 4074
17:59:07.724983, 207.905, 4127
17:59:07.763728, 207.9075, 4130
17:59:07.763780, 207.91, 4097
17:59:07.763846, 207.9125, 4061
17:59:07.763892, 207.915, 4091
17:59:07.764152, 207.9175, 4116
17:59:07.764173, 207.92, 4052
17:59:07.764187, 207.9225, 4129
17:59:07.764201, 207.925, 4150
17:59:07.764457, 207.9275, 4144
17:59:07.764475, 207.93, 4115
17:59:07.764488, 207.9325, 4157
17:59:07.764501, 207.935, 4164
17:59:07.792318, 207.9375, 4099
17:59:07.792386, 207.94, 4175
17:59:07.792432, 207.9425, 4150
17:59:07.792457, 207.945, 4171
17:59:07.792884, 207.9475, 4169
17:59:07.792913, 207.95, 4197
17:59:07.792933, 207.9525, 4205
17:59:07.792951, 207.955, 4136
17:59:07.792970, 207.9575, 4219
17:59:07.793300, 207.96, 4209
17:59:07.793325, 207.9625, 4222
17:59:07.793344, 207.965, 4168
17:59:07.793363, 207.9675, 4250
17:59:07.794756, 207.97, 4233
17:59:07.794782, 207.9725, 4169
17:59:07.794801, 207.975, 4248
17:59:07.794832, 207.9775, 4225
17:59:07.827094, 207.98, 4217
17:59:07.827159, 207.9825, 4210
17:59:07.827226, 207.985, 4245
17:59:07.827277, 207.9875, 4234
17:59:07.832237, 207.99, 4185
17:59:07.832286, 207.9925, 4241
17:59:07.832305, 207.995, 4212
17:59:07.832422, 207.9975, 4217
17:59:07.834109, 208.0, 4186
17:59:07.834170, 208.0025, 4208
17:59:07.834189, 208.005, 4223
17:59:07.834250, 208.0075, 4165
17:59:07.860467, 208.01, 4209
17:59:07.860523, 208.0125, 4181
17:59:07.860552, 208.015, 4172
17:59:07.860586, 208.0175, 4113
17:59:07.860948, 208.02, 4200
17:59:07.860970, 208.0225, 4190
17:59:07.861015, 208.025, 4116
17:59:07.861032, 208.0275, 4214
17:59:07.861292, 208.03, 4215
17:59:07.861371, 208.0325, 4202
17:59:07.861425, 208.035, 4163
17:59:07.861440, 208.0375, 4229
17:59:07.890447, 208.04, 4207
17:59:07.890513, 208.0425, 4139
17:59:07.890537, 208.045, 4192
17:59:07.890569, 208.0475, 4200
17:59:07.890950, 208.05, 4190
17:59:07.890981, 208.0525, 4179
17:59:07.890998, 208.055, 4178
17:59:07.891013, 208.0575, 4171
17:59:07.891028, 208.06, 4120
17:59:07.891441, 208.0625, 4199
17:59:07.891461, 208.065, 4191
17:59:07.891476, 208.0675, 4188
17:59:07.891490, 208.07, 4197
17:59:07.900235, 208.0725, 4199
17:59:07.900293, 208.075, 4175
17:59:07.900315, 208.0775, 4092
17:59:07.900359, 208.08, 4195
17:59:07.917994, 208.0825, 4174
17:59:07.918095, 208.085, 4166
17:59:07.918120, 208.0875, 4170
17:59:07.918140, 208.09, 4192
17:59:07.918557, 208.0925, 4199
17:59:07.918593, 208.095, 4111
17:59:07.918609, 208.0975, 4206
17:59:07.918624, 208.1, 4196
17:59:07.935242, 208.1025, 4196
17:59:07.935288, 208.105, 4189
17:59:07.935308, 208.1075, 4207
17:59:07.935327, 208.11, 4192
17:59:07.952308, 208.1125, 4097
17:59:07.952418, 208.115, 4176
17:59:07.952460, 208.1175, 4172
17:59:07.952497, 208.12, 4150
17:59:07.953175, 208.1225, 4167
17:59:07.953228, 208.125, 4180
17:59:07.953257, 208.1275, 4196
17:59:07.953284, 208.13, 4140
17:59:07.961217, 208.1325, 4186
17:59:07.961280, 208.135, 4186
17:59:07.961312, 208.1375, 4160
17:59:07.961370, 208.14, 4140
17:59:07.970539, 208.1425, 4175
17:59:07.970609, 208.145, 4167
17:59:07.970630, 208.1475, 4100
17:59:07.970649, 208.15, 4208
17:59:07.988533, 208.1525, 4169
17:59:07.988612, 208.155, 4183
17:59:07.988678, 208.1575, 4135
17:59:07.988729, 208.16, 4175
17:59:07.988767, 208.1625, 4153
17:59:07.996714, 208.165, 4073
17:59:07.996807, 208.1675, 4161
17:59:07.996864, 208.17, 4167
17:59:07.996916, 208.1725, 4151
17:59:08.019628, 208.175, 4170
17:59:08.019715, 208.1775, 4192
17:59:08.019741, 208.18, 4191
17:59:08.019761, 208.1825, 4110
17:59:08.020110, 208.185, 4156
17:59:08.020147, 208.1875, 4168
17:59:08.020163, 208.19, 4172
17:59:08.020177, 208.1925, 4156
17:59:08.022317, 208.195, 4170
17:59:08.022347, 208.1975, 4172
17:59:08.022362, 208.2, 4097
17:59:08.022376, 208.2025, 4165
17:59:08.031722, 208.205, 4173
17:59:08.031808, 208.2075, 4174
17:59:08.031857, 208.21, 4163
17:59:08.031902, 208.2125, 4183
17:59:08.031947, 208.215, 4190
17:59:08.056014, 208.2175, 4118
17:59:08.056073, 208.22, 4211
17:59:08.056097, 208.2225, 4194
17:59:08.056117, 208.225, 4190
17:59:08.057405, 208.2275, 4196
17:59:08.057448, 208.23, 4196
17:59:08.057471, 208.2325, 4214
17:59:08.057492, 208.235, 4140
17:59:08.066380, 208.2375, 4207
17:59:08.066446, 208.24, 4207
17:59:08.066524, 208.2425, 4183
17:59:08.066604, 208.245, 4166
17:59:08.091655, 208.2475, 4188
17:59:08.091757, 208.25, 4187
17:59:08.091807, 208.2525, 4108
17:59:08.091845, 208.255, 4190
17:59:08.092353, 208.2575, 4198
17:59:08.092391, 208.26, 4186
17:59:08.092414, 208.2625, 4153
17:59:08.092435, 208.265, 4155
17:59:08.092921, 208.2675, 4149
17:59:08.092984, 208.27, 4079
17:59:08.093008, 208.2725, 4180
17:59:08.093028, 208.275, 4186
17:59:08.125389, 208.2775, 4186
17:59:08.125499, 208.28, 4154
17:59:08.125604, 208.2825, 4179
17:59:08.125659, 208.285, 4177
17:59:08.126334, 208.2875, 4104
17:59:08.126388, 208.29, 4158
17:59:08.126418, 208.2925, 4148
17:59:08.126445, 208.295, 4156
17:59:08.127597, 208.2975, 4129
17:59:08.127655, 208.3, 4154
17:59:08.127694, 208.3025, 4155
17:59:08.127731, 208.305, 4088
17:59:08.153009, 208.3075, 4159
17:59:08.153106, 208.31, 4152
17:59:08.153147, 208.3125, 4147
17:59:08.153175, 208.315, 4157
17:59:08.153202, 208.3175, 4182
17:59:08.153671, 208.32, 4162
17:59:08.153708, 208.3225, 4102
17:59:08.153726, 208.325, 4180
17:59:08.153742, 208.3275, 4193
17:59:08.154010, 208.33, 4173
17:59:08.154034, 208.3325, 4126
17:59:08.154050, 208.335, 4179
17:59:08.154065, 208.3375, 4186
17:59:08.194835, 208.34, 4127
17:59:08.194918, 208.3425, 4208
17:59:08.194986, 208.345, 4194
17:59:08.195050, 208.3475, 4191
17:59:08.196010, 208.35, 4161
17:59:08.196157, 208.3525, 4176
17:59:08.196223, 208.355, 4173
17:59:08.196277, 208.3575, 4080
17:59:08.197254, 208.36, 4155
17:59:08.197324, 208.3625, 4134
17:59:08.197377, 208.365, 4147
17:59:08.197427, 208.3675, 4155
17:59:08.198320, 208.37, 4168
17:59:08.198388, 208.3725, 4173
17:59:08.198440, 208.375, 4109
17:59:08.198490, 208.3775, 4189
17:59:08.227754, 208.38, 4186
17:59:08.227825, 208.3825, 4170
17:59:08.227867, 208.385, 4163
17:59:08.227971, 208.3875, 4176
17:59:08.228455, 208.39, 4197
17:59:08.228489, 208.3925, 4087
17:59:08.228512, 208.395, 4172
17:59:08.228533, 208.3975, 4160
17:59:08.263265, 208.4, 4141
17:59:08.263342, 208.4025, 4145
17:59:08.263435, 208.405, 4163
17:59:08.263513, 208.4075, 4157
17:59:08.263564, 208.41, 4087
17:59:08.264362, 208.4125, 4175
17:59:08.264419, 208.415, 4180
17:59:08.264456, 208.4175, 4187
17:59:08.264491, 208.42, 4173
17:59:08.265114, 208.4225, 4196
17:59:08.265162, 208.425, 4161
17:59:08.265197, 208.4275, 4072
17:59:08.265231, 208.43, 4170
17:59:08.265837, 208.4325, 4163
17:59:08.265881, 208.435, 4160
17:59:08.265916, 208.4375, 4151
17:59:08.265951, 208.44, 4177
17:59:08.268224, 208.4425, 4197
17:59:08.268269, 208.445, 4115
17:59:08.268293, 208.4475, 4197
17:59:08.268354, 208.45, 4201
17:59:08.291860, 208.4525, 4201
17:59:08.291970, 208.455, 4210
17:59:08.292015, 208.4575, 4202
17:59:08.292054, 208.46, 4205
17:59:08.294425, 208.4625, 4139
17:59:08.294510, 208.465, 4210
17:59:08.294560, 208.4675, 4181
17:59:08.294605, 208.47, 4206
17:59:08.320443, 208.4725, 4176
17:59:08.320523, 208.475, 4185
17:59:08.320552, 208.4775, 4172
17:59:08.320584, 208.48, 4090
17:59:08.320612, 208.4825, 4162
17:59:08.322733, 208.485, 4161
17:59:08.322769, 208.4875, 4167
17:59:08.322785, 208.49, 4144
17:59:08.322799, 208.4925, 4164
17:59:08.324084, 208.495, 4130
17:59:08.324117, 208.4975, 4059
17:59:08.324139, 208.5, 4151
17:59:08.324161, 208.5025, 4163
17:59:08.354250, 208.505, 4163
17:59:08.354330, 208.5075, 4045
17:59:08.354353, 208.51, 4217
17:59:08.354492, 208.5125, 4233
17:59:08.354979, 208.515, 4139
17:59:08.355029, 208.5175, 4202
17:59:08.355048, 208.52, 4200
17:59:08.355064, 208.5225, 4205
17:59:08.355324, 208.525, 4184
17:59:08.355347, 208.5275, 4190
17:59:08.355362, 208.53, 4186
17:59:08.355376, 208.5325, 4099
17:59:08.363646, 208.535, 4200
17:59:08.363696, 208.5375, 4203
17:59:08.363725, 208.54, 4209
17:59:08.363751, 208.5425, 4200
17:59:08.390781, 208.545, 4217
17:59:08.390862, 208.5475, 4189
17:59:08.390889, 208.55, 4106
17:59:08.390910, 208.5525, 4181
17:59:08.391264, 208.555, 4189
17:59:08.391288, 208.5575, 4178
17:59:08.391304, 208.56, 4171
17:59:08.391318, 208.5625, 4177
17:59:08.391578, 208.565, 4183
17:59:08.391597, 208.5675, 4105
17:59:08.391612, 208.57, 4172
17:59:08.391627, 208.5725, 4186
17:59:08.421564, 208.575, 4202
17:59:08.421713, 208.5775, 4197
17:59:08.421759, 208.58, 4228
17:59:08.421797, 208.5825, 4297
17:59:08.421837, 208.585, 4284
17:59:08.422394, 208.5875, 4406
17:59:08.422448, 208.59, 4430
17:59:08.422477, 208.5925, 4453
17:59:08.425024, 208.595, 4461
17:59:08.425067, 208.5975, 4373
17:59:08.425098, 208.6, 4178
17:59:08.425126, 208.6025, 3894
17:59:08.434596, 208.605, 3708
17:59:08.434647, 208.6075, 3404
17:59:08.434672, 208.61, 3112
17:59:08.434694, 208.6125, 2705
17:59:08.434715, 208.615, 2237
17:59:08.454414, 208.6175, 1936
17:59:08.454517, 208.62, 1712
17:59:08.454550, 208.6225, 1877
17:59:08.454575, 208.625, 2173
17:59:08.460549, 208.6275, 2851
17:59:08.460654, 208.63, 3818
17:59:08.460711, 208.6325, 4656
17:59:08.460763, 208.635, 4959
17:59:08.469330, 208.6375, 4930
17:59:08.469455, 208.64, 4960
17:59:08.469486, 208.6425, 4836
17:59:08.469541, 208.645, 4701
17:59:08.488091, 208.6475, 4599
17:59:08.488152, 208.65, 4583
17:59:08.488175, 208.6525, 4554
17:59:08.488196, 208.655, 4450
17:59:08.488648, 208.6575, 4507
17:59:08.488679, 208.66, 4502
17:59:08.488694, 208.6625, 4472
17:59:08.488709, 208.665, 4437
17:59:08.495265, 208.6675, 4501
17:59:08.495336, 208.67, 4488
17:59:08.495379, 208.6725, 4398
17:59:08.495416, 208.675, 4474
17:59:08.504770, 208.6775, 4481
17:59:08.504962, 208.68, 4430
17:59:08.505036, 208.6825, 4397
17:59:08.505058, 208.685, 4418
17:59:08.525794, 208.6875, 4405
17:59:08.525858, 208.69, 4349
17:59:08.525913, 208.6925, 4405
17:59:08.525936, 208.695, 4400
17:59:08.530503, 208.6975, 4365
17:59:08.530592, 208.7, 4353
17:59:08.530646, 208.7025, 4372
17:59:08.530690, 208.705, 4375
17:59:08.530743, 208.7075, 4269
17:59:08.558368, 208.71, 4333
17:59:08.558434, 208.7125, 4327
17:59:08.558460, 208.715, 4332
17:59:08.558484, 208.7175, 4293
17:59:08.558909, 208.72, 4308
17:59:08.558937, 208.7225, 4288
17:59:08.558955, 208.725, 4194
17:59:08.558972, 208.7275, 4290
17:59:08.559274, 208.73, 4294
17:59:08.559297, 208.7325, 4284
17:59:08.559315, 208.735, 4285
17:59:08.559332, 208.7375, 4293
17:59:08.564728, 208.74, 4266
17:59:08.564760, 208.7425, 4204
17:59:08.564778, 208.745, 4285
17:59:08.564795, 208.7475, 4272
17:59:08.590115, 208.75, 4271
17:59:08.590218, 208.7525, 4236
17:59:08.590251, 208.755, 4279
17:59:08.590277, 208.7575, 4269
17:59:08.591211, 208.76, 4179
17:59:08.591254, 208.7625, 4221
17:59:08.591276, 208.765, 4226
17:59:08.591297, 208.7675, 4228
17:59:08.599683, 208.77, 4206
17:59:08.599715, 208.7725, 4257
17:59:08.599731, 208.775, 4243
17:59:08.599745, 208.7775, 4157
17:59:08.623574, 208.78, 4244
17:59:08.623671, 208.7825, 4221
17:59:08.623701, 208.785, 4223
17:59:08.623726, 208.7875, 4207
17:59:08.624193, 208.79, 4229
17:59:08.624235, 208.7925, 4212
17:59:08.624256, 208.795, 4126
17:59:08.624274, 208.7975, 4201
17:59:08.626145, 208.8, 4209
17:59:08.626182, 208.8025, 4201
17:59:08.626202, 208.805, 4165
17:59:08.626220, 208.8075, 4200
17:59:08.656957, 208.81, 4190
17:59:08.657064, 208.8125, 4136
17:59:08.657098, 208.815, 4188
17:59:08.657127, 208.8175, 4204
17:59:08.657156, 208.82, 4212
17:59:08.657744, 208.8225, 4186
17:59:08.657786, 208.825, 4192
17:59:08.657808, 208.8275, 4203
17:59:08.657829, 208.83, 4142
17:59:08.661069, 208.8325, 4220
17:59:08.661094, 208.835, 4214
17:59:08.661109, 208.8375, 4180
17:59:08.661124, 208.84, 4164
17:59:08.671064, 208.8425, 4187
17:59:08.671121, 208.845, 4184
17:59:08.671152, 208.8475, 4125
17:59:08.671173, 208.85, 4203
17:59:08.692024, 208.8525, 4194
17:59:08.692083, 208.855, 4197
17:59:08.692135, 208.8575, 4192
17:59:08.692158, 208.86, 4187
17:59:08.692477, 208.8625, 4173
17:59:08.692503, 208.865, 4133
17:59:08.692518, 208.8675, 4176
17:59:08.692534, 208.87, 4160
17:59:08.705204, 208.8725, 4185
17:59:08.705253, 208.875, 4157
17:59:08.705299, 208.8775, 4160
17:59:08.705317, 208.88, 4191
17:59:08.705332, 208.8825, 4113
17:59:08.725664, 208.885, 4184
17:59:08.725731, 208.8875, 4169
17:59:08.725754, 208.89, 4143
17:59:08.726076, 208.8925, 4160
17:59:08.726097, 208.895, 4172
17:59:08.726112, 208.8975, 4162
17:59:08.726126, 208.9, 4098
17:59:08.726140, 208.9025, 4163
17:59:08.757346, 208.905, 4141
17:59:08.757460, 208.9075, 4152
17:59:08.757508, 208.91, 4139
17:59:08.757541, 208.9125, 4167
17:59:08.758038, 208.915, 4159
17:59:08.758077, 208.9175, 4076
17:59:08.758100, 208.92, 4160
17:59:08.758121, 208.9225, 4162
17:59:08.758483, 208.925, 4151
17:59:08.758511, 208.9275, 4102
17:59:08.758532, 208.93, 4193
17:59:08.758552, 208.9325, 4201
17:59:08.766617, 208.935, 4123
17:59:08.766714, 208.9375, 4192
17:59:08.766773, 208.94, 4203
17:59:08.766826, 208.9425, 4201
17:59:08.791694, 208.945, 4205
17:59:08.791768, 208.9475, 4205
17:59:08.791795, 208.95, 4215
17:59:08.791817, 208.9525, 4154
17:59:08.792209, 208.955, 4212
17:59:08.792233, 208.9575, 4215
17:59:08.792250, 208.96, 4196
17:59:08.792266, 208.9625, 4210
17:59:08.792545, 208.965, 4205
17:59:08.792566, 208.9675, 4209
17:59:08.792582, 208.97, 4151
17:59:08.792598, 208.9725, 4197
17:59:08.801478, 208.975, 4197
17:59:08.801557, 208.9775, 4179
17:59:08.801607, 208.98, 4211
17:59:08.801652, 208.9825, 4227
17:59:08.801699, 208.985, 4229
17:59:08.824107, 208.9875, 4160
17:59:08.824188, 208.99, 4226
17:59:08.824225, 208.9925, 4218
17:59:08.824278, 208.995, 4207
17:59:08.827455, 208.9975, 4238
17:59:08.827506, 209.0, 4248
17:59:08.827531, 209.0025, 4242
17:59:08.827552, 209.005, 4177
17:59:08.836847, 209.0075, 4230
17:59:08.837035, 209.01, 4250
17:59:08.837134, 209.0125, 4259
17:59:08.837225, 209.015, 4231
17:59:08.860246, 209.0175, 4253
17:59:08.860340, 209.02, 4245
17:59:08.860366, 209.0225, 4196
17:59:08.860387, 209.025, 4242
17:59:08.860708, 209.0275, 4218
17:59:08.860734, 209.03, 4204
17:59:08.860749, 209.0325, 4164
17:59:08.860764, 209.035, 4168
17:59:08.862327, 209.0375, 4188
17:59:08.862350, 209.04, 4143
17:59:08.862365, 209.0425, 4232
17:59:08.862380, 209.045, 4211
17:59:08.895873, 209.0475, 4207
17:59:08.895957, 209.05, 4187
17:59:08.895986, 209.0525, 4208
17:59:08.896009, 209.055, 4193
17:59:08.896031, 209.0575, 4116
17:59:08.896352, 209.06, 4193
17:59:08.896376, 209.0625, 4197
17:59:08.896438, 209.065, 4172
17:59:08.896464, 209.0675, 4158
17:59:08.897578, 209.07, 4198
17:59:08.897601, 209.0725, 4175
17:59:08.897617, 209.075, 4103
17:59:08.897633, 209.0775, 4193
17:59:08.924447, 209.08, 4186
17:59:08.924556, 209.0825, 4175
17:59:08.924596, 209.085, 4150
17:59:08.924627, 209.0875, 4163
17:59:08.925220, 209.09, 4181
17:59:08.925265, 209.0925, 4132
17:59:08.925289, 209.095, 4189
17:59:08.925310, 209.0975, 4196
17:59:08.932541, 209.1, 4187
17:59:08.932608, 209.1025, 4162
17:59:08.932654, 209.105, 4189
17:59:08.932709, 209.1075, 4182
17:59:08.942367, 209.11, 4134
17:59:08.942421, 209.1125, 4174
17:59:08.942451, 209.115, 4155
17:59:08.942470, 209.1175, 4174
17:59:08.972297, 209.12, 4160
17:59:08.972374, 209.1225, 4195
17:59:08.972400, 209.125, 4172
17:59:08.972420, 209.1275, 4102
17:59:08.973539, 209.13, 4184
17:59:08.973669, 209.1325, 4188
17:59:08.973693, 209.135, 4175
17:59:08.973714, 209.1375, 4171
17:59:08.974837, 209.14, 4205
17:59:08.974951, 209.1425, 4186
17:59:08.974994, 209.145, 4099
17:59:08.975014, 209.1475, 4172
17:59:09.000643, 209.15, 4180
17:59:09.000718, 209.1525, 4171
17:59:09.000796, 209.155, 4155
17:59:09.000884, 209.1575, 4172
17:59:09.000915, 209.16, 4172
17:59:09.021002, 209.1625, 4095
17:59:09.021070, 209.165, 4171
17:59:09.021106, 209.1675, 4181
17:59:09.021138, 209.17, 4173
17:59:09.022690, 209.1725, 4182
17:59:09.022745, 209.175, 4201
17:59:09.022778, 209.1775, 4176
17:59:09.022809, 209.18, 4111
17:59:09.041104, 209.1825, 4204
17:59:09.041201, 209.185, 4168
17:59:09.041252, 209.1875, 4167
17:59:09.041289, 209.19, 4096
17:59:09.041960, 209.1925, 4171
17:59:09.042061, 209.195, 4169
17:59:09.042114, 209.1975, 4107
17:59:09.042147, 209.2, 4171
17:59:09.042715, 209.2025, 4155
17:59:09.042757, 209.205, 4126
17:59:09.042785, 209.2075, 4150
17:59:09.042810, 209.21, 4197
17:59:09.046122, 209.2125, 4160
17:59:09.046163, 209.215, 4081
17:59:09.046194, 209.2175, 4161
17:59:09.046224, 209.22, 4163
17:59:09.055484, 209.2225, 4134
17:59:09.055559, 209.225, 4147
17:59:09.055619, 209.2275, 4152
17:59:09.055651, 209.23, 4162
17:59:09.055681, 209.2325, 4100
17:59:09.073952, 209.235, 4198
17:59:09.074041, 209.2375, 4158
17:59:09.074079, 209.24, 4163
17:59:09.074099, 209.2425, 4145
17:59:09.074468, 209.245, 4159
17:59:09.074502, 209.2475, 4164
17:59:09.074517, 209.25, 4109
17:59:09.074531, 209.2525, 4184
17:59:09.081063, 209.255, 4169
17:59:09.081093, 209.2575, 4153
17:59:09.081109, 209.26, 4142
17:59:09.081124, 209.2625, 4165
17:59:09.109723, 209.265, 4152
17:59:09.109779, 209.2675, 4080
17:59:09.109829, 209.27, 4164
17:59:09.109852, 209.2725, 4184
17:59:09.110163, 209.275, 4151
17:59:09.110185, 209.2775, 4126
17:59:09.110200, 209.28, 4153
17:59:09.110215, 209.2825, 4161
17:59:09.115969, 209.285, 4116
17:59:09.115998, 209.2875, 4176
17:59:09.116014, 209.29, 4151
17:59:09.116028, 209.2925, 4158
17:59:09.141446, 209.295, 4150
17:59:09.141534, 209.2975, 4172
17:59:09.141568, 209.3, 4167
17:59:09.141599, 209.3025, 4082
17:59:09.142164, 209.305, 4142
17:59:09.142209, 209.3075, 4139
17:59:09.142236, 209.31, 4135
17:59:09.142262, 209.3125, 4136
17:59:09.142285, 209.315, 4136
17:59:09.142704, 209.3175, 4140
17:59:09.142740, 209.32, 4068
17:59:09.142763, 209.3225, 4147
17:59:09.142786, 209.325, 4165
17:59:09.151262, 209.3275, 4158
17:59:09.151293, 209.33, 4131
17:59:09.151309, 209.3325, 4156
17:59:09.151324, 209.335, 4163
17:59:09.175634, 209.3375, 4085
17:59:09.175739, 209.34, 4158
17:59:09.175764, 209.3425, 4134
17:59:09.175787, 209.345, 4134
17:59:09.177423, 209.3475, 4147
17:59:09.177469, 209.35, 4174
17:59:09.177490, 209.3525, 4173
17:59:09.177510, 209.355, 4097
17:59:09.186547, 209.3575, 4169
17:59:09.186627, 209.36, 4150
17:59:09.186677, 209.3625, 4136
17:59:09.186722, 209.365, 4111
17:59:09.210708, 209.3675, 4146
17:59:09.210796, 209.37, 4132
17:59:09.210829, 209.3725, 4076
17:59:09.210870, 209.375, 4137
17:59:09.211423, 209.3775, 4136
17:59:09.211459, 209.38, 4116
17:59:09.211484, 209.3825, 4115
17:59:09.211506, 209.385, 4148
17:59:09.221637, 209.3875, 4149
17:59:09.221724, 209.39, 4101
17:59:09.221779, 209.3925, 4169
17:59:09.221831, 209.395, 4163
17:59:09.244894, 209.3975, 4166
17:59:09.244954, 209.4, 4184
17:59:09.244977, 209.4025, 4206
17:59:09.244996, 209.405, 4184
17:59:09.245054, 209.4075, 4121
17:59:09.245356, 209.41, 4204
17:59:09.245378, 209.4125, 4195
17:59:09.245393, 209.415, 4178
17:59:09.245408, 209.4175, 4165
17:59:09.247313, 209.42, 4167
17:59:09.247371, 209.4225, 4165
17:59:09.247407, 209.425, 4083
17:59:09.247422, 209.4275, 4169
17:59:09.256695, 209.43, 4175
17:59:09.256738, 209.4325, 4152
17:59:09.256759, 209.435, 4155
17:59:09.256777, 209.4375, 4192
17:59:09.279291, 209.44, 4192
17:59:09.279348, 209.4425, 4135
17:59:09.279371, 209.445, 4196
17:59:09.279391, 209.4475, 4191
17:59:09.282460, 209.45, 4196
17:59:09.282504, 209.4525, 4175
17:59:09.282531, 209.455, 4190
17:59:09.282556, 209.4575, 4170
17:59:09.291906, 209.46, 4107
17:59:09.291988, 209.4625, 4193
17:59:09.292015, 209.465, 4200
17:59:09.292043, 209.4675, 4185
17:59:09.310393, 209.47, 4159
17:59:09.310512, 209.4725, 4170
17:59:09.310551, 209.475, 4161
17:59:09.310626, 209.4775, 4103
17:59:09.311254, 209.48, 4169
17:59:09.311305, 209.4825, 4177
17:59:09.311336, 209.485, 4165
17:59:09.311365, 209.4875, 4138
17:59:09.317632, 209.49, 4173
17:59:09.317676, 209.4925, 4177
17:59:09.317700, 209.495, 4097
17:59:09.317728, 209.4975, 4188
17:59:09.327687, 209.5, 4197
17:59:09.327748, 209.5025, 4182
17:59:09.327769, 209.505, 4154
17:59:09.327788, 209.5075, 4186
17:59:09.327809, 209.51, 4197
17:59:09.346330, 209.5125, 4095
17:59:09.346420, 209.515, 4171
17:59:09.346452, 209.5175, 4189
17:59:09.346477, 209.52, 4167
17:59:09.352790, 209.5225, 4139
17:59:09.352864, 209.525, 4149
17:59:09.352908, 209.5275, 4151
17:59:09.352948, 209.53, 4081
17:59:09.377723, 209.5325, 4173
17:59:09.377788, 209.535, 4173
17:59:09.377811, 209.5375, 4151
17:59:09.377832, 209.54, 4149
17:59:09.378179, 209.5425, 4186
17:59:09.378201, 209.545, 4184
17:59:09.378217, 209.5475, 4123
17:59:09.378232, 209.55, 4186
17:59:09.378501, 209.5525, 4197
17:59:09.378521, 209.555, 4177
17:59:09.378536, 209.5575, 4163
17:59:09.378551, 209.56, 4195
17:59:09.387965, 209.5625, 4194
17:59:09.388068, 209.565, 4136
17:59:09.388126, 209.5675, 4187
17:59:09.388178, 209.57, 4177
17:59:09.412580, 209.5725, 4173
17:59:09.412671, 209.575, 4159
17:59:09.412697, 209.5775, 4187
17:59:09.412717, 209.58, 4163
17:59:09.412739, 209.5825, 4095
17:59:09.413574, 209.585, 4165
17:59:09.413596, 209.5875, 4158
17:59:09.413612, 209.59, 4162
17:59:09.422729, 209.5925, 4128
17:59:09.422818, 209.595, 4166
17:59:09.422890, 209.5975, 4156
17:59:09.422939, 209.6, 4093
17:59:09.422984, 209.6025, 4167
17:59:09.446598, 209.605, 4169
17:59:09.446662, 209.6075, 4176
17:59:09.446686, 209.61, 4165
17:59:09.446708, 209.6125, 4173
17:59:09.447083, 209.615, 4161
17:59:09.447109, 209.6175, 4078
17:59:09.447125, 209.62, 4164
17:59:09.447140, 209.6225, 4150
17:59:09.457839, 209.625, 4135
17:59:09.457891, 209.6275, 4097
17:59:09.457912, 209.63, 4123
17:59:09.457932, 209.6325, 4128
17:59:09.477603, 209.635, 4076
17:59:09.477719, 209.6375, 4163
17:59:09.477756, 209.64, 4166
17:59:09.477787, 209.6425, 4178
17:59:09.478346, 209.645, 4166
17:59:09.478391, 209.6475, 4185
17:59:09.478414, 209.65, 4198
17:59:09.478438, 209.6525, 4150
17:59:09.483667, 209.655, 4220
17:59:09.483714, 209.6575, 4202
17:59:09.483744, 209.66, 4186
17:59:09.483771, 209.6625, 4170
17:59:09.492949, 209.665, 4186
17:59:09.492996, 209.6675, 4178
17:59:09.493015, 209.67, 4110
17:59:09.493071, 209.6725, 4192
17:59:09.513538, 209.675, 4184
17:59:09.513704, 209.6775, 4176
17:59:09.513757, 209.68, 4165
17:59:09.513796, 209.6825, 4168
17:59:09.519180, 209.685, 4163
17:59:09.519280, 209.6875, 4110
17:59:09.519336, 209.69, 4189
17:59:09.519387, 209.6925, 4185
17:59:09.547476, 209.695, 4167
17:59:09.547557, 209.6975, 4158
17:59:09.547662, 209.7, 4151
17:59:09.547725, 209.7025, 4157
17:59:09.547791, 209.705, 4069
17:59:09.548326, 209.7075, 4168
17:59:09.548364, 209.71, 4183
17:59:09.548390, 209.7125, 4193
17:59:09.548414, 209.715, 4262
17:59:09.548940, 209.7175, 4347
17:59:09.548991, 209.72, 4411
17:59:09.549018, 209.7225, 4364
17:59:09.549056, 209.725, 4471
17:59:09.553955, 209.7275, 4504
17:59:09.554024, 209.73, 4458
17:59:09.554071, 209.7325, 4285
17:59:09.554117, 209.735, 4121
17:59:09.584279, 209.7375, 3876
17:59:09.584415, 209.74, 3481
17:59:09.584510, 209.7425, 3219
17:59:09.584607, 209.745, 2805
17:59:09.585610, 209.7475, 2318
17:59:09.585693, 209.75, 1911
17:59:09.585750, 209.7525, 1751
17:59:09.585802, 209.755, 1756
17:59:09.589083, 209.7575, 1937
17:59:09.589152, 209.76, 2686
17:59:09.589200, 209.7625, 3569
17:59:09.589244, 209.765, 4330
17:59:09.616725, 209.7675, 4754
17:59:09.616786, 209.77, 4905
17:59:09.616810, 209.7725, 4854
17:59:09.616831, 209.775, 4659
17:59:09.617181, 209.7775, 4610
17:59:09.617206, 209.78, 4542
