18:01:00.022636 581.24 1380 2668 14340 -1218 -30 21
18:01:00.031667 581.25 1448 2620 14224 -1321 -11 -10
18:01:00.031826 581.26 1404 2580 14348 -1345 39 -17
18:01:00.031942 581.27 1412 2480 14196 -1280 25 -22
18:01:00.032051 581.28 1384 2456 14168 -1393 85 -21
18:01:00.032158 581.29 1320 2520 14180 -1460 58 -23
18:01:00.061922 581.3 1324 2280 14260 -1481 39 -14
18:01:00.070447 581.31 1420 2348 14128 -1445 -25 7
18:01:00.070632 581.32 1376 2360 14228 -1416 -10 -28
18:01:00.070751 581.33 1444 2316 14188 -1246 -96 -37
18:01:00.070928 581.34 1484 2232 14320 -1155 50 -25
18:01:00.071079 581.35 1360 2240 14276 -1186 19 16
18:01:00.071226 581.36 1444 2176 14152 -1135 46 -17
18:01:00.123668 581.37 1488 2112 14392 -1075 42 -16
18:01:00.132993 581.38 1364 2172 14232 -1055 -32 12
18:01:00.156595 581.39 1448 2184 14248 -981 -51 89
18:01:00.168875 581.4 1580 2184 14172 -974 -144 123
18:01:00.169163 581.41 1608 2216 14316 -1083 66 -11
18:01:00.169532 581.42 1484 2052 14308 -999 50 42
18:01:00.169888 581.43 1568 1924 14308 -935 31 45
18:01:00.170240 581.44 1492 1984 14260 -973 64 50
18:01:00.170590 581.45 1520 1892 14212 -1026 84 -13
18:01:00.170981 581.46 1476 1984 14264 -866 91 7
18:01:00.171338 581.47 1528 1968 14240 -869 67 -2
18:01:00.176077 581.48 1516 2004 14268 -975 80 8
18:01:00.177892 581.49 1572 2012 14220 -955 94 -24
18:01:00.181063 581.5 1476 1956 14192 -980 -16 -12
18:01:00.204604 581.51 1484 1844 14288 -980 41 -20
18:01:00.225432 581.52 1504 1828 14172 -885 44 -59
18:01:00.233292 581.53 1580 1772 14252 -851 91 8
18:01:00.236299 581.54 1536 1796 14360 -896 67 3
18:01:00.239630 581.55 1644 1864 14248 -820 71 -33
18:01:00.258300 581.56 1624 1840 14452 -822 114 -26
18:01:00.268634 581.57 1588 1812 14360 -884 86 -22
18:01:00.268913 581.58 1544 1720 14160 -858 37 -13
18:01:00.278752 581.59 1484 1696 14080 -879 -59 -9
18:01:00.300357 581.6 1584 1692 14152 -867 -38 -8
18:01:00.312686 581.61 1612 1596 14224 -580 85 25
18:01:00.314143 581.62 1612 1696 14356 -220 249 -1
18:01:00.316511 581.63 1612 1796 14364 -146 270 -7
18:01:00.340076 581.64 1492 1760 14192 -173 183 3
18:01:00.365100 581.65 1572 1704 14312 -159 139 -1
18:01:00.377200 581.66 1680 1636 14068 -98 68 35
18:01:00.377330 581.67 1724 1668 14256 239 237 14
18:01:00.378419 581.68 1480 1776 14660 268 418 25
18:01:00.379180 581.69 1448 1916 14104 -361 339 84
18:01:00.395430 581.7 1592 1652 13696 -799 -101 145
18:01:00.407002 581.71 1800 1504 14748 664 594 -46
18:01:00.424052 581.72 1516 1900 14224 1127 176 -58
18:01:00.437747 581.73 1376 1700 13884 -70 -118 47
18:01:00.438386 581.74 1728 1584 14404 842 402 -31
18:01:00.440028 581.75 1500 1804 14084 696 397 -54
18:01:00.456086 581.76 1436 1736 13692 -351 -120 114
18:01:00.466826 581.77 1656 1644 14044 410 346 26
18:01:00.485005 581.78 1608 1688 14356 1035 665 -60
18:01:00.501897 581.79 1564 1896 14728 1221 649 -87
18:01:00.526171 581.8 1500 1984 14708 1069 526 -93
18:01:00.526327 581.81 1532 2064 14376 817 514 -25
18:01:00.526679 581.82 1360 2028 14412 625 465 46
18:01:00.527021 581.83 1396 1980 14268 513 365 27
18:01:00.534357 581.84 1440 1976 14228 337 224 14
18:01:00.561464 581.85 1468 1932 14016 211 227 36
18:01:00.571822 581.86 1648 1940 14060 137 253 37
18:01:00.573072 581.87 1536 1940 13908 288 276 48
18:01:00.574688 581.88 1492 1856 13972 643 232 19
18:01:00.595900 581.89 1640 1924 14304 1021 270 -10
18:01:00.604359 581.9 1520 1952 14400 1210 339 -23
18:01:00.627050 581.91 1536 1960 14496 1337 457 -33
18:01:00.641741 581.92 1528 2076 14324 1315 489 -35
18:01:00.641898 581.93 1524 2184 14264 1052 490 -37
18:01:00.642014 581.94 1568 2144 14228 950 445 -42
18:01:00.642125 581.95 1588 2120 14284 937 421 -20
18:01:00.656950 581.96 1500 2232 14268 843 395 -16
18:01:00.678857 581.97 1464 2192 14128 787 392 -17
18:01:00.680709 581.98 1392 2272 14176 729 346 -16
18:01:00.695162 581.99 1448 2228 14172 839 441 -33
18:01:00.703285 582.0 1520 2284 14212 1032 469 -30
18:01:00.716511 582.01 1324 2280 14224 1220 515 -63
18:01:00.739343 582.02 1420 2404 14404 1410 589 -84
18:01:00.739453 582.03 1460 2480 14288 1252 416 -37
18:01:00.739528 582.04 1312 2476 14392 1419 733 -61
18:01:00.765601 582.05 1376 2500 14004 943 438 33
18:01:00.772952 582.06 1444 2424 14128 628 358 19
18:01:00.774581 582.07 1452 2348 14276 1121 520 -64
18:01:00.792155 582.08 1336 2468 13932 997 250 -29
18:01:00.805376 582.09 1444 2512 14220 1086 405 -70
18:01:00.849254 582.1 1480 2528 14160 1377 551 -109
18:01:00.849911 582.11 1416 2632 14320 1133 476 -76
18:01:00.851763 582.12 1356 2652 14124 1036 399 -37
18:01:00.898164 582.13 1292 2636 14028 967 341 -27
18:01:00.909676 582.14 1372 2604 14260 1016 398 -78
18:01:00.909843 582.15 1416 2672 14236 1205 402 -56
18:01:00.909988 582.16 1380 2764 14204 1282 543 -74
18:01:00.910153 582.17 1372 2724 14184 1314 507 -92
18:01:00.910286 582.18 1392 2804 14068 1233 554 -69
18:01:00.910413 582.19 1332 2740 14188 1197 580 -88
18:01:00.910538 582.2 1344 2780 14264 1320 594 -109
18:01:00.910662 582.21 1268 2876 14088 1231 595 -96
18:01:00.916076 582.22 1336 2852 14076 1076 503 -69
18:01:00.942665 582.23 1300 2964 14148 1025 532 -78
18:01:00.946708 582.24 1340 2928 14124 1129 592 -111
18:01:01.032549 582.25 1324 2952 14176 1230 568 -103
18:01:01.039905 582.26 1160 2872 14188 1152 516 -74
18:01:01.040035 582.27 1300 3104 14020 1029 515 -39
18:01:01.042068 582.28 1252 3048 14200 994 423 -38
18:01:01.043312 582.29 1312 3188 14104 1032 446 -57
18:01:01.044467 582.3 1180 3168 14040 1022 457 -20
18:01:01.045697 582.31 1308 3180 14108 1004 435 -37
18:01:01.048980 582.32 1216 3180 14144 1000 451 -64
18:01:01.072905 582.33 1260 3228 13956 992 462 -63
18:01:01.073173 582.34 1220 3256 14040 1152 439 -58
18:01:01.073460 582.35 1240 3284 14120 1259 516 -77
18:01:01.073732 582.36 1292 3360 14032 1210 487 -65
18:01:01.074002 582.37 1224 3248 14108 1183 489 -99
18:01:01.092273 582.38 1268 3332 14160 1155 499 -80
18:01:01.107142 582.39 1288 3368 13948 1098 531 -75
18:01:01.113851 582.4 1236 3316 13960 1071 532 -98
18:01:01.116847 582.41 1240 3428 14160 1036 452 -80
18:01:01.128421 582.42 1248 3448 14132 961 502 -110
18:01:01.166812 582.43 1180 3536 14080 985 495 -102
18:01:01.175482 582.44 1144 3568 14180 987 427 -63
18:01:01.175811 582.45 1244 3608 14044 876 438 -100
18:01:01.176082 582.46 1236 3596 14036 900 473 -125
18:01:01.217350 582.47 1144 3644 13984 972 463 -70
18:01:01.219137 582.48 1228 3588 14008 911 461 -127
18:01:01.240311 582.49 1204 3600 14060 888 450 -76
18:01:01.240402 582.5 1096 3588 14028 786 426 -62
18:01:01.240467 582.51 1152 3580 13984 617 323 -50
18:01:01.240560 582.52 1192 3524 13760 582 387 -60
18:01:01.248580 582.53 1348 3540 14124 856 506 -100
18:01:01.249865 582.54 1124 3684 14172 1152 589 -125
18:01:01.267743 582.55 1008 3796 13984 1117 544 -87
18:01:01.276356 582.56 1036 3708 14040 878 529 -72
18:01:01.294413 582.57 1164 3732 13736 724 374 -85
18:01:01.308756 582.58 1180 3744 13948 658 371 -55
18:01:01.367646 582.59 988 3856 14276 722 313 -66
18:01:01.371525 582.6 976 3940 13768 44 317 97
18:01:01.371655 582.61 1324 3696 13788 -313 121 81
18:01:01.372424 582.62 1272 3900 14604 1220 634 -130
18:01:01.401720 582.63 1152 3988 14260 1303 464 -141
18:01:01.411877 582.64 1172 4024 13892 234 61 10
18:01:01.430065 582.65 1116 3976 13956 271 399 -14
18:01:01.447947 582.66 992 3788 13508 -520 -38 161
18:01:01.502530 582.67 1176 3624 13612 -20 133 71
18:01:01.572208 582.68 1168 3784 13804 494 177 -27
18:01:01.579618 582.69 1120 3928 14128 737 180 -36
18:01:01.579704 582.7 960 3904 14172 958 115 -50
18:01:01.579771 582.71 1004 3912 14108 847 206 -34
18:01:01.579833 582.72 1016 3996 14132 784 241 -34
18:01:01.662676 582.73 1056 4108 14036 619 283 -22
18:01:01.665782 582.74 1196 4136 13992 360 369 -38
18:01:01.685486 582.75 1020 4156 13964 274 352 -52
18:01:01.696565 582.76 1108 4048 13732 285 381 -56
18:01:01.719440 582.77 1132 4104 13960 582 332 -39
18:01:01.730492 582.78 1124 4204 13944 229 347 -9
18:01:01.730668 582.79 1084 4136 14048 175 327 -27
18:01:01.730999 582.8 1116 4148 13872 192 380 -17
18:01:01.731237 582.81 988 4140 13896 197 373 -14
18:01:01.731462 582.82 1000 4156 13744 225 313 -20
18:01:01.731714 582.83 1012 4256 14016 487 620 -86
18:01:01.731937 582.84 916 4184 13636 -205 214 32
18:01:01.852582 582.85 1092 4216 13764 -202 319 0
18:01:01.887999 582.86 968 4212 14008 359 382 -94
18:01:01.896481 582.87 1028 4144 14060 322 341 -69
18:01:01.896646 582.88 1020 4260 13844 225 265 -31
18:01:01.896819 582.89 1000 4240 13824 48 264 -8
18:01:01.897124 582.9 1064 4244 13804 45 247 -22
18:01:01.897455 582.91 1028 4292 13816 123 189 10
18:01:01.899553 582.92 1132 4364 14000 75 187 -10
18:01:01.950119 582.93 1012 4304 13896 61 239 -23
18:01:01.957555 582.94 972 4284 13992 66 254 -7
18:01:01.957729 582.95 920 4264 13900 -195 237 4
18:01:01.958800 582.96 940 4260 13824 -249 250 -28
18:01:02.013655 582.97 920 4288 13792 -242 244 -14
18:01:02.028891 582.98 984 4304 13864 -291 266 11
18:01:02.029054 582.99 996 4296 13760 -394 199 4
18:01:02.029211 583.0 1028 4320 13912 -506 202 26
18:01:02.029360 583.01 1040 4268 13836 -613 174 39
18:01:02.029517 583.02 1004 4360 13876 -637 170 47
18:01:02.029661 583.03 1056 4300 13964 -706 143 64
18:01:02.029802 583.04 1148 4288 13884 -745 97 62
18:01:02.029945 583.05 1088 4232 13848 -882 96 72
18:01:02.030107 583.06 928 4248 13984 -996 77 86
18:01:02.030249 583.07 932 4252 13916 -1074 63 106
18:01:02.030704 583.08 936 4200 13984 -1225 61 144
18:01:02.034088 583.09 1060 4108 13856 -1387 -24 139
18:01:02.035522 583.1 996 4064 13916 -1470 -70 156
18:01:02.061607 583.11 1028 4112 13872 -1404 -63 159
18:01:02.062688 583.12 1124 4008 13916 -1426 -71 157
18:01:02.063818 583.13 1096 4056 14000 -1396 -78 167
18:01:02.086619 583.14 1100 3948 14032 -1318 -48 142
18:01:02.095912 583.15 1168 3984 14004 -1349 26 115
18:01:02.103288 583.16 1120 4016 14052 -1416 54 134
18:01:02.105171 583.17 1180 4012 13864 -1514 50 111
18:01:02.120265 583.18 1088 3928 14044 -1665 -34 177
18:01:02.147616 583.19 1128 3820 13920 -1670 -59 171
18:01:02.163540 583.2 1104 3768 14040 -1577 -102 192
18:01:02.163757 583.21 1072 3708 14060 -1558 -87 183
18:01:02.163929 583.22 1096 3780 14116 -1649 -59 168
18:01:02.164097 583.23 1096 3724 14008 -1572 -34 148
18:01:02.182715 583.24 1124 3732 13968 -1548 -6 114
18:01:02.193993 583.25 1116 3656 13900 -1649 -16 143
18:01:02.200578 583.26 1236 3724 14040 -1617 46 125
18:01:02.201756 583.27 1144 3636 14076 -1614 29 114
18:01:02.219693 583.28 1148 3532 13968 -1519 15 116
18:01:02.228772 583.29 1148 3568 13944 -1525 21 140
18:01:02.236007 583.3 1140 3536 14024 -1539 -8 124
18:01:02.253557 583.31 1084 3492 14172 -1416 54 106
18:01:02.261653 583.32 1236 3436 14116 -1421 49 112
18:01:02.261763 583.33 1192 3504 14116 -1453 32 113
18:01:02.273590 583.34 1324 3340 14052 -1476 -59 94
18:01:02.297623 583.35 1124 3428 13984 -1597 -49 130
18:01:02.297794 583.36 1176 3292 13924 -1714 -173 141
18:01:02.303875 583.37 1224 3192 13908 -1708 -184 145
18:01:02.315600 583.38 1260 3172 14068 -1421 -3 86
18:01:02.335458 583.39 1280 3216 14200 -1085 131 28
18:01:02.336722 583.4 1160 3336 14052 -1046 124 20
18:01:02.349497 583.41 1108 3268 14172 -1278 27 23
18:01:02.361917 583.42 1192 3244 14036 -1425 -97 103
18:01:02.363430 583.43 1216 3052 13904 -1362 -141 94
18:01:02.386313 583.44 1240 3072 14208 -1195 -133 111
18:01:02.395418 583.45 1140 3148 14196 -1674 8 188
18:01:02.396575 583.46 1256 3072 13612 -2512 -310 203
18:01:02.400954 583.47 1588 2816 14340 -1902 -175 99
18:01:02.416677 583.48 1204 2976 14464 -383 40 -35
18:01:02.430976 583.49 1040 3020 13900 -1538 -599 159
18:01:02.438880 583.5 1488 2912 14328 -1471 -257 76
18:01:02.456154 583.51 1264 2764 13856 -1331 -74 93
18:01:02.465160 583.52 1236 2712 13528 -1980 -560 230
18:01:02.489235 583.53 1372 2656 14032 -1274 -116 101
18:01:02.499757 583.54 1476 2768 14456 -348 151 -17
18:01:02.499948 583.55 1372 3012 14360 -514 77 19
18:01:02.500097 583.56 1208 2928 14368 -839 52 78
18:01:02.517922 583.57 1244 2852 14220 -806 120 62
18:01:02.530406 583.58 1280 2924 14324 -1027 44 82
18:01:02.532385 583.59 1332 2764 14420 -1237 -72 99
18:01:02.535916 583.6 1300 2756 14224 -1474 -62 129
18:01:02.560012 583.61 1408 2692 14072 -1658 -49 113
18:01:02.576219 583.62 1188 2616 13964 -1625 -17 79
18:01:02.576594 583.63 1292 2504 13872 -1229 -69 88
18:01:02.597906 583.64 1404 2460 14028 -828 0 19
18:01:02.598057 583.65 1372 2484 14284 -573 32 1
18:01:02.613828 583.66 1460 2508 14304 -572 29 -6
18:01:02.617251 583.67 1452 2476 14464 -651 83 21
18:01:02.618980 583.68 1428 2628 14212 -744 91 50
18:01:02.636882 583.69 1412 2600 14076 -977 93 40
18:01:02.648528 583.7 1376 2552 14100 -1080 -9 36
18:01:02.656290 583.71 1412 2420 14132 -1112 -13 5
18:01:02.673631 583.72 1360 2376 14192 -1124 -31 14
18:01:02.683528 583.73 1400 2508 14148 -1117 -24 44
18:01:02.702618 583.74 1400 2424 14028 -1075 22 17
18:01:02.719023 583.75 1324 2372 14212 -970 45 12
18:01:02.719118 583.76 1332 2364 14320 -809 102 29
18:01:02.719188 583.77 1488 2372 14168 -632 151 2
18:01:02.733072 583.78 1312 2452 14312 -540 175 16
18:01:02.753942 583.79 1364 2456 14212 -588 109 -4
18:01:02.775155 583.8 1472 2320 14304 -400 355 -18
18:01:02.780549 583.81 1356 2428 14048 -663 135 47
18:01:02.780766 583.82 1464 2272 14068 -1015 52 42
18:01:02.793401 583.83 1468 2272 14188 -576 133 6
18:01:02.816897 583.84 1340 2252 14204 -505 41 -18
18:01:02.817054 583.85 1540 2332 14204 -402 102 15
18:01:02.817244 583.86 1540 2172 14164 -453 85 5
18:01:02.820967 583.87 1452 2252 14248 -356 87 23
18:01:02.840961 583.88 1460 2304 14216 -464 25 8
18:01:02.853100 583.89 1560 2296 14228 -422 74 -19
18:01:02.855136 583.9 1532 2284 14296 -323 73 2
18:01:02.868326 583.91 1540 2272 14232 -297 179 -30
18:01:02.884013 583.92 1520 2324 14128 -207 221 -30
18:01:02.890890 583.93 1376 2280 14180 -164 264 -50
18:01:02.893647 583.94 1512 2260 14120 -227 227 -35
18:01:02.917092 583.95 1404 2160 14160 -205 222 36
18:01:02.917232 583.96 1436 2180 14188 -36 265 0
18:01:02.927228 583.97 1404 2236 14296 17 245 -45
18:01:02.947927 583.98 1460 2220 14172 -73 207 -19
18:01:02.948031 583.99 1508 2208 14256 -19 207 -28
18:01:02.948253 584.0 1356 2248 14276 102 242 -30
18:01:02.975447 584.01 1468 2168 14404 175 229 -44
18:01:02.983810 584.02 1520 2300 14156 175 309 -28
18:01:02.985841 584.03 1460 2248 14192 69 266 -7
18:01:03.014682 584.04 1464 2348 14180 40 286 5
18:01:03.017530 584.05 1532 2316 14260 77 280 20
18:01:03.017686 584.06 1424 2292 14176 88 326 11
18:01:03.023642 584.07 1344 2284 14072 110 289 0
18:01:03.031171 584.08 1456 2248 14120 210 278 16
18:01:03.058335 584.09 1468 2316 14328 236 311 13
18:01:03.058454 584.1 1500 2312 14192 233 296 -23
18:01:03.072321 584.11 1452 2272 14228 279 328 -9
18:01:03.082194 584.12 1440 2320 14284 334 360 -36
18:01:03.083848 584.13 1512 2356 14224 270 356 -45
18:01:03.096702 584.14 1428 2324 14292 216 335 -6
18:01:03.106833 584.15 1368 2316 14184 191 322 -30
18:01:03.130934 584.16 1400 2444 14220 226 312 -5
18:01:03.137633 584.17 1464 2360 14148 268 312 -21
18:01:03.155170 584.18 1328 2376 14116 291 346 -23
18:01:03.165400 584.19 1316 2420 14296 283 309 -16
18:01:03.165675 584.2 1336 2380 14200 293 302 -24
18:01:03.165911 584.21 1396 2400 14324 305 318 -33
18:01:03.175715 584.22 1368 2332 14212 327 311 -9
18:01:03.192244 584.23 1356 2404 14152 329 304 -26
18:01:03.203452 584.24 1348 2420 14220 373 297 -34
18:01:03.210951 584.25 1356 2520 14232 444 347 -36
18:01:03.232552 584.26 1356 2448 14212 368 358 -19
18:01:03.232800 584.27 1376 2432 14328 251 273 -5
18:01:03.241824 584.28 1384 2472 14092 139 204 20
18:01:03.260296 584.29 1428 2436 14096 229 253 -6
18:01:03.268844 584.3 1444 2508 14356 544 393 -33
18:01:03.271015 584.31 1404 2528 14316 765 448 -27
18:01:03.287125 584.32 1312 2632 14296 767 446 -22
18:01:03.300914 584.33 1340 2572 14092 630 412 -40
18:01:03.311504 584.34 1388 2504 13944 522 298 -7
18:01:03.333448 584.35 1368 2560 14068 703 272 -21
18:01:03.333757 584.36 1408 2640 14368 856 407 -21
18:01:03.360040 584.37 1236 2752 13936 135 474 58
18:01:03.367773 584.38 1388 2624 13628 -432 126 100
18:01:03.367935 584.39 1596 2484 14612 1311 726 -145
18:01:03.368059 584.4 1344 2860 14340 1831 509 -165
18:01:03.368404 584.41 1280 2764 13928 564 33 -4
18:01:03.394829 584.42 1376 2620 14340 1012 582 -112
18:01:03.408267 584.43 1220 2768 13788 538 285 20
18:01:03.409805 584.44 1352 2488 13560 -162 -30 114
18:01:03.420792 584.45 1392 2612 13932 767 410 -29
18:01:03.440021 584.46 1368 2772 14260 1352 528 -106
18:01:03.440173 584.47 1360 2928 14332 1308 433 -90
18:01:03.443730 584.48 1256 2908 14132 1222 479 -86
18:01:03.469740 584.49 1300 2900 14200 1219 581 -59
18:01:03.471074 584.5 1200 3036 14264 1219 487 -42
18:01:03.490566 584.51 1348 3028 14228 1036 389 -29
18:01:03.499911 584.52 1228 3076 14328 858 419 -42
18:01:03.500055 584.53 1336 2884 13916 728 395 18
18:01:03.511334 584.54 1328 2952 13856 752 432 12
18:01:03.528182 584.55 1332 2944 13876 932 380 -21
18:01:03.537306 584.56 1384 2948 13936 1124 384 -39
18:01:03.540823 584.57 1428 3016 14176 1294 428 -49
18:01:03.565839 584.58 1312 3032 14320 1341 429 -101
18:01:03.568663 584.59 1336 3092 14284 1268 458 -76
18:01:03.588058 584.6 1212 3116 14168 1136 530 -120
18:01:03.603630 584.61 1356 3188 14148 1095 507 -86
18:01:03.603868 584.62 1292 3180 14064 985 508 -80
18:01:03.604101 584.63 1200 3184 14092 904 471 -76
18:01:03.625857 584.64 1256 3264 14200 848 439 -30
18:01:03.637590 584.65 1288 3352 14112 791 408 -53
18:01:03.640582 584.66 1332 3220 13892 868 427 -70
18:01:03.642187 584.67 1236 3280 14164 976 446 -71
18:01:03.657738 584.68 1176 3340 14016 1059 441 -96
18:01:03.667204 584.69 1172 3408 14124 1173 496 -102
18:01:03.694358 584.7 1212 3592 14180 1251 506 -139
18:01:03.703995 584.71 1292 3472 14268 1219 538 -92
18:01:03.704153 584.72 1088 3428 14168 1245 726 -111
18:01:03.728348 584.73 1064 3600 13988 710 444 -48
18:01:03.735756 584.74 1156 3564 13784 548 459 -80
18:01:03.736028 584.75 1168 3352 13844 696 306 -80
18:01:03.746274 584.76 1144 3468 14080 1191 366 -166
18:01:03.774728 584.77 1052 3556 14132 1260 309 -92
18:01:03.775049 584.78 1140 3608 13808 1099 331 -75
18:01:03.775519 584.79 1072 3672 14020 1076 323 -89
18:01:03.777496 584.8 1172 3684 14092 1013 322 -80
18:01:03.798598 584.81 1204 3724 14004 909 285 -84
18:01:03.806552 584.82 1132 3700 13900 834 332 -82
18:01:03.807250 584.83 1184 3808 13964 911 344 -107
18:01:03.824511 584.84 1224 3832 14044 909 400 -130
18:01:03.866267 584.85 1172 3876 13924 784 414 -98
18:01:03.868849 584.86 1132 3828 13896 661 424 -84
18:01:03.869844 584.87 1144 3812 14040 739 437 -70
18:01:03.871097 584.88 1220 3868 14012 803 458 -82
18:01:03.872177 584.89 996 3828 13928 715 405 -73
18:01:03.878763 584.9 1088 3844 13836 506 328 -53
18:01:03.903104 584.91 1128 3764 13888 562 393 -48
18:01:03.932470 584.92 1052 3788 13944 618 392 -71
18:01:03.939256 584.93 1008 3944 13812 679 405 -53
18:01:03.939444 584.94 1084 3880 13948 657 423 -87
18:01:03.939681 584.95 1192 3956 13884 564 342 -55
18:01:03.940055 584.96 1084 3984 13936 500 400 -63
18:01:03.963412 584.97 1116 4008 13940 449 404 -38
18:01:03.969095 584.98 1020 4012 14024 481 387 -78
18:01:03.976411 584.99 1104 4056 13948 504 424 -60
18:01:03.995689 585.0 1064 3980 13936 513 375 -36
18:01:04.003655 585.01 1012 4100 13952 459 395 -53
18:01:04.003786 585.02 1040 4004 13800 474 364 -34
18:01:04.030769 585.03 1004 4072 14008 390 485 -68
18:01:04.038876 585.04 1060 4092 13984 503 308 -65
18:01:04.039034 585.05 1060 4060 13848 383 378 -55
18:01:04.065289 585.06 1052 4120 13868 326 370 -64
18:01:04.070719 585.07 1088 4140 13776 314 384 -48
18:01:04.071004 585.08 976 4068 13936 307 382 -37
18:01:04.083824 585.09 1136 4112 13844 339 352 -31
18:01:04.105910 585.1 984 4192 13844 346 352 -74
18:01:04.106238 585.11 940 4200 13920 329 345 -77
18:01:04.125320 585.12 1048 4140 13936 292 355 -61
18:01:04.136777 585.13 1040 4168 13820 287 375 -82
18:01:04.137009 585.14 1032 4168 13872 284 320 -59
18:01:04.143593 585.15 992 4124 13904 263 314 -30
18:01:04.146879 585.16 1064 4236 13684 216 337 -11
18:01:04.149239 585.17 964 4184 13988 231 306 -26
18:01:04.180665 585.18 1008 4260 13956 271 334 -22
18:01:04.182024 585.19 964 4264 13956 260 346 -67
18:01:04.195643 585.2 1032 4228 13900 176 355 -62
18:01:04.206602 585.21 1060 4256 13684 79 286 -4
18:01:04.224929 585.22 884 4132 13844 -46 241 -32
18:01:04.244241 585.23 1064 4200 13820 -92 274 0
18:01:04.244389 585.24 1056 4204 13928 71 352 -15
18:01:04.244490 585.25 1044 4216 13944 340 507 -105
18:01:04.291422 585.26 1004 4244 13840 364 484 -108
18:01:04.303564 585.27 924 4256 13776 225 410 -75
18:01:04.303834 585.28 988 4324 13824 42 351 -57
18:01:04.304095 585.29 912 4304 13856 21 274 -26
18:01:04.304335 585.3 904 4348 14056 28 187 -7
18:01:04.304571 585.31 868 4288 13680 -494 200 110
18:01:04.305956 585.32 1024 4108 13512 -931 -41 186
18:01:04.333998 585.33 1256 4212 14260 286 467 -58
18:01:04.343162 585.34 904 4456 14164 707 452 -153
18:01:04.366181 585.35 968 4404 13952 -130 25 34
18:01:04.376279 585.36 1036 4192 13704 -420 105 53
18:01:04.376389 585.37 824 4144 13532 -684 117 114
18:01:04.376470 585.38 932 4000 13468 -589 -65 120
18:01:04.442820 585.39 1180 4104 13648 -2 135 42
18:01:04.443831 585.4 1056 4212 14020 192 113 -25
18:01:04.446761 585.41 968 4288 14088 267 -11 21
18:01:04.448248 585.42 944 4420 13988 196 60 38
18:01:04.496047 585.43 956 4244 13964 197 69 52
18:01:04.508773 585.44 1064 4372 14052 177 86 33
18:01:04.508920 585.45 1024 4460 13872 27 161 -2
18:01:04.509018 585.46 980 4456 13908 -33 288 -12
18:01:04.509112 585.47 1048 4296 13756 -34 303 -12
18:01:04.509205 585.48 1132 4336 13816 33 320 -7
18:01:04.509296 585.49 964 4124 13744 211 262 3
18:01:04.509388 585.5 1020 4244 13932 239 233 -5
18:01:04.518244 585.51 952 4356 13924 201 238 -10
18:01:04.543495 585.52 888 4256 13964 99 209 -16
18:01:04.543834 585.53 1124 4256 13908 67 240 -13
18:01:04.560228 585.54 992 4288 14008 32 286 -16
18:01:04.579297 585.55 1128 4308 13824 -68 308 4
18:01:04.582211 585.56 980 4328 13932 -130 281 -9
18:01:04.583353 585.57 988 4416 13888 -160 252 14
18:01:04.584409 585.58 988 4340 13896 -205 257 15
18:01:04.600399 585.59 920 4308 13788 -270 239 18
18:01:04.609996 585.6 976 4288 13908 -223 231 16
18:01:04.614662 585.61 1020 4424 13924 -130 261 4
18:01:04.641955 585.62 1004 4292 13924 -78 288 -7
18:01:04.644223 585.63 932 4328 13916 -42 293 -1
18:01:04.644343 585.64 1020 4476 13944 -21 308 -20
18:01:04.651039 585.65 1072 4424 13992 -65 216 -33
18:01:04.675447 585.66 984 4384 14292 118 513 -67
18:01:04.677283 585.67 888 4428 13684 -415 216 35
18:01:04.680983 585.68 1024 4200 13652 -620 130 61
18:01:04.696173 585.69 996 4280 13912 -149 304 -34
18:01:04.712890 585.7 908 4316 13996 4 282 -55
18:01:04.713994 585.71 1012 4332 13816 -110 209 -26
18:01:04.719469 585.72 972 4284 13900 -259 245 8
18:01:04.744002 585.73 1000 4288 13752 -312 204 16
18:01:04.744203 585.74 1028 4356 13776 -171 137 -6
18:01:04.762825 585.75 956 4388 14012 -258 87 28
18:01:04.774720 585.76 1008 4444 13908 -295 148 -2
18:01:04.799724 585.77 1012 4432 13800 -347 140 15
18:01:04.808702 585.78 1036 4416 13944 -409 116 -5
18:01:04.808902 585.79 948 4404 13928 -472 138 33
18:01:04.809058 585.8 1076 4260 13776 -515 146 60
18:01:04.816098 585.81 960 4316 13820 -577 120 64
18:01:04.834492 585.82 888 4264 13968 -547 138 41
18:01:04.871991 585.83 936 4380 14060 -629 100 27
18:01:04.881645 585.84 1004 4184 13848 -925 63 72
18:01:04.881841 585.85 996 4316 14012 -1031 88 93
18:01:04.882098 585.86 1064 4200 13804 -1143 57 95
18:01:04.882722 585.87 928 4196 13996 -1253 -21 105
18:01:04.903879 585.88 1048 4140 13904 -1350 2 139
18:01:04.916445 585.89 1064 4168 13908 -1532 -74 135
18:01:04.918114 585.9 1016 4152 13936 -1642 -29 141
18:01:04.936960 585.91 1124 4092 13844 -1583 -44 141
18:01:04.948530 585.92 1036 4008 13996 -1683 -40 185
18:01:04.953243 585.93 1012 4060 14008 -1768 -23 168
18:01:04.971607 585.94 1020 3988 13908 -1771 -73 174
18:01:04.971758 585.95 1072 3896 13840 -1836 -96 199
18:01:04.973950 585.96 1040 3828 14016 -1748 -80 171
18:01:04.988791 585.97 1092 3832 13988 -1693 -78 174
18:01:04.996207 585.98 1052 3752 14040 -1685 -49 154
18:01:05.012910 585.99 1112 3816 13944 -1694 -4 161
18:01:05.027156 586.0 1120 3712 13952 -1835 -73 159
18:01:05.035866 586.01 1176 3676 13924 -1857 -51 178
18:01:05.036653 586.02 1216 3616 14148 -1767 -36 164
18:01:05.051753 586.03 1220 3644 13892 -1703 -78 195
18:01:05.089329 586.04 1140 3608 13968 -1678 -81 179
18:01:05.095937 586.05 1196 3512 14020 -1646 -81 156
18:01:05.096398 586.06 1084 3576 13960 -1669 -102 153
18:01:05.099579 586.07 1176 3460 14160 -1699 -55 102
18:01:05.102767 586.08 1080 3508 14124 -1660 -77 127
18:01:05.122308 586.09 1092 3436 13968 -1728 -102 141
18:01:05.133079 586.1 1172 3356 13944 -1782 -149 139
18:01:05.133267 586.11 1152 3440 13996 -1717 -95 134
18:01:05.149553 586.12 1168 3352 14148 -1676 -103 154
18:01:05.161950 586.13 1148 3352 14044 -1646 -75 114
18:01:05.171490 586.14 1324 3248 14164 -1571 -74 112
18:01:05.173714 586.15 1228 3216 14180 -1619 -97 123
18:01:05.197784 586.16 1236 3276 13876 -1871 -162 129
18:01:05.198063 586.17 1204 3088 13960 -1972 -211 144
18:01:05.198420 586.18 1256 3160 14076 -1802 -205 144
18:01:05.222080 586.19 1264 2956 14168 -1447 -17 51
18:01:05.254977 586.2 1352 3084 14140 -1164 41 48
18:01:05.268846 586.21 1284 3104 14208 -1268 -1 55
18:01:05.269920 586.22 1216 2932 14100 -1434 -86 94
18:01:05.270387 586.23 1284 2992 14036 -1465 -227 132
18:01:05.270892 586.24 1312 2952 14184 -1299 -169 125
18:01:05.271230 586.25 1240 2928 14380 -1177 -77 110
18:01:05.288951 586.26 1184 3064 13888 -1968 -6 187
18:01:05.299885 586.27 1428 2764 13756 -2556 -462 170
18:01:05.316656 586.28 1576 2676 14632 -1373 102 10
18:01:05.325677 586.29 1376 2868 14272 -462 -170 -10
18:01:05.327950 586.3 1248 2816 13872 -1680 -637 154
18:01:05.328991 586.31 1580 2680 14200 -1370 -73 63
18:01:05.350489 586.32 1212 2640 13720 -1461 -163 133
18:01:05.352610 586.33 1240 2560 13700 -1899 -490 197
18:01:05.356699 586.34 1628 2508 14128 -1072 -22 76
18:01:05.380081 586.35 1432 2684 14580 -349 228 -24
18:01:05.380359 586.36 1444 2792 14556 -526 88 -13
18:01:05.385975 586.37 1420 2804 14568 -912 45 44
18:01:05.401056 586.38 1264 2752 14288 -1099 65 67
18:01:05.418122 586.39 1292 2728 14260 -1204 7 73
18:01:05.419962 586.4 1312 2572 14316 -1308 -125 110
18:01:05.433462 586.41 1384 2536 14220 -1564 -80 77
18:01:05.444652 586.42 1452 2512 14024 -1782 -23 111
18:01:05.445930 586.43 1336 2448 14076 -1919 0 57
18:01:05.471036 586.44 1320 2296 13968 -1743 -113 86
18:01:05.478681 586.45 1420 2216 13960 -1278 -129 63
18:01:05.483593 586.46 1536 2320 14140 -842 -72 35
18:01:05.512741 586.47 1516 2344 14304 -590 2 4
18:01:05.515183 586.48 1444 2228 14340 -634 82 21
18:01:05.515264 586.49 1360 2416 14340 -697 68 11
18:01:05.522045 586.5 1532 2316 14088 -811 102 22
18:01:05.544318 586.51 1480 2296 14056 -991 59 42
18:01:05.544641 586.52 1408 2320 14368 -1066 2 13
18:01:05.551445 586.53 1588 2312 14168 -1028 -10 38
18:01:05.568101 586.54 1400 2268 14224 -1084 -1 57
18:01:05.579034 586.55 1464 2296 14172 -1063 48 -2
18:01:05.601947 586.56 1524 2288 14244 -968 63 -25
18:01:05.610973 586.57 1344 2248 14248 -908 113 2
18:01:05.611131 586.58 1400 2184 14220 -760 122 18
18:01:05.611229 586.59 1496 2212 14268 -544 148 2
18:01:05.618475 586.6 1556 2236 14216 -555 120 8
18:01:05.637184 586.61 1476 2180 14424 -447 245 -4
18:01:05.647689 586.62 1360 2252 14396 -596 209 17
18:01:05.648375 586.63 1472 2216 14080 -979 58 76
18:01:05.656059 586.64 1484 2000 14284 -792 88 45
18:01:05.681670 586.65 1412 2052 14132 -639 -9 36
18:01:05.688317 586.66 1496 1996 14384 -396 41 15
18:01:05.689035 586.67 1564 2088 14312 -304 124 19
18:01:05.700947 586.68 1516 2112 14284 -365 134 -13
18:01:05.714421 586.69 1464 2160 14212 -303 109 25
18:01:05.716029 586.7 1436 2120 14176 -370 2 38
18:01:05.731992 586.71 1652 2036 14224 -371 58 1
18:01:05.746447 586.72 1588 2048 14304 -212 147 -20
18:01:05.746716 586.73 1580 2088 14304 -129 222 -7
18:01:05.770762 586.74 1500 2048 14404 -9 303 -37
18:01:05.779157 586.75 1484 2016 14244 -7 293 -12
18:01:05.783461 586.76 1444 1916 14096 35 285 -3
18:01:05.791156 586.77 1472 2012 14100 140 266 -7
18:01:05.819729 586.78 1424 1956 14164 334 288 -19
18:01:05.819833 586.79 1520 2052 14096 427 292 -28
18:01:05.821189 586.8 1584 2060 14168 411 330 -33
18:01:05.835108 586.81 1520 1992 14168 573 403 -72
18:01:05.854648 586.82 1540 2124 14060 836 451 -62
18:01:05.855047 586.83 1528 2148 14188 877 372 -63
18:01:05.870252 586.84 1516 2188 14224 906 394 -53
18:01:05.880942 586.85 1364 2228 14120 908 393 -5
18:01:05.881073 586.86 1520 2120 14052 965 408 5
18:01:05.898205 586.87 1400 2272 14136 1109 448 5
18:01:05.907919 586.88 1408 2244 14152 1237 495 -42
18:01:05.928140 586.89 1480 2256 14044 1300 528 -33
18:01:05.934970 586.9 1588 2400 14088 1420 543 -35
18:01:05.935062 586.91 1508 2420 14152 1610 559 -79
18:01:05.948794 586.92 1596 2500 14140 1803 621 -89
18:01:05.956224 586.93 1420 2524 14252 1956 717 -120
18:01:05.972293 586.94 1500 2484 14248 1975 721 -85
18:01:05.980560 586.95 1396 2560 14260 1838 664 -105
18:01:05.985893 586.96 1444 2616 14168 1722 642 -82
18:01:06.002342 586.97 1428 2716 14148 1838 660 -115
18:01:06.024259 586.98 1368 2772 14372 1835 597 -112
18:01:06.024409 586.99 1412 2740 14292 1844 650 -179
18:01:06.024490 587.0 1456 2896 14216 1762 712 -156
18:01:06.046289 587.01 1404 2892 14312 1449 599 -120
18:01:06.057786 587.02 1260 2800 13968 1168 512 -68
18:01:06.058182 587.03 1352 2824 13864 1100 464 -75
18:01:06.074764 587.04 1304 2864 14124 1205 438 -114
18:01:06.086448 587.05 1408 2864 14116 1505 577 -142
18:01:06.087692 587.06 1332 3048 14168 1764 660 -159
18:01:06.091728 587.07 1184 2908 14136 1776 599 -122
18:01:06.115390 587.08 1180 3040 14100 1606 609 -101
18:01:06.115522 587.09 1216 3032 13988 1553 556 -68
18:01:06.131462 587.1 1192 3108 14072 1714 503 -106
18:01:06.143683 587.11 1208 3092 14324 1589 542 -67
18:01:06.143796 587.12 1160 3368 13952 691 556 43
18:01:06.161429 587.13 1444 3168 13992 494 359 7
18:01:06.174924 587.14 1412 3136 14424 1954 708 -201
18:01:06.192623 587.15 1100 3396 14300 2120 638 -181
18:01:06.205739 587.16 1272 3460 13988 805 240 -17
18:01:06.205848 587.17 1320 3424 14248 952 786 -119
18:01:06.211007 587.18 1152 3400 13508 273 186 74
18:01:06.234595 587.19 1280 3232 13588 4 162 61
18:01:06.234697 587.2 1356 3212 13796 1032 435 -62
18:01:06.252338 587.21 1216 3452 14284 1571 414 -131
18:01:06.265069 587.22 1148 3484 14336 1626 271 -101
18:01:06.265169 587.23 1200 3572 13972 1524 396 -98
18:01:06.282902 587.24 1020 3644 14244 1572 518 -83
18:01:06.294098 587.25 1100 3676 14332 1494 461 -65
18:01:06.311670 587.26 1248 3884 14152 1206 432 -80
18:01:06.325448 587.27 1172 3876 14100 915 533 -94
18:01:06.325673 587.28 1156 3768 13824 705 488 -65
18:01:06.325788 587.29 1236 3624 13860 721 545 -75
18:01:06.343793 587.3 1104 3680 13740 931 448 -85
18:01:06.355890 587.31 1208 3620 13996 1071 405 -92
18:01:06.356056 587.32 1256 3708 13964 1191 421 -82
18:01:06.361378 587.33 1144 3732 14064 1154 387 -68
18:01:06.383840 587.34 1148 3796 13988 1038 391 -100
18:01:06.384415 587.35 1148 3900 13980 944 411 -103
18:01:06.400970 587.36 1216 3808 14020 882 428 -96
18:01:06.413932 587.37 1260 3992 13984 758 439 -89
18:01:06.428350 587.38 1144 3880 13844 741 406 -94
18:01:06.438912 587.39 1172 3884 14000 649 371 -73
18:01:06.439059 587.4 1196 3908 13928 568 383 -80
18:01:06.443575 587.41 1108 3896 13896 607 373 -45
18:01:06.457877 587.42 1032 3896 13816 652 398 -84
18:01:06.469297 587.43 1124 4000 13860 662 383 -52
18:01:06.487724 587.44 1204 4068 14012 721 424 -82
18:01:06.487902 587.45 1096 4092 13980 772 441 -74
18:01:06.507037 587.46 1092 4072 14004 797 382 -78
18:01:06.515556 587.47 1068 4056 14048 904 708 -101
18:01:06.515707 587.48 936 4156 13684 513 468 -61
18:01:06.526887 587.49 1072 3988 13628 34 337 -6
18:01:06.541348 587.5 1124 4024 13816 362 372 -73
18:01:06.550225 587.51 1092 4068 14000 737 438 -100
18:01:06.556600 587.52 1108 4208 14032 634 357 -71
18:01:06.574415 587.53 1120 4120 13732 388 336 -53
18:01:06.583406 587.54 980 4176 13912 308 316 -23
18:01:06.585961 587.55 1012 4200 13984 400 278 -29
18:01:06.593394 587.56 1008 4172 13944 402 205 -20
18:01:06.609851 587.57 1148 4284 13824 357 261 -17
18:01:06.618244 587.58 1008 4344 13952 369 277 -55
18:01:06.623342 587.59 992 4152 14012 400 315 -48
18:01:06.638427 587.6 1072 4208 13828 379 364 -66
18:01:06.655395 587.61 980 4176 13792 317 341 -58
18:01:06.655488 587.62 1052 4112 13864 210 341 -32
18:01:06.661279 587.63 1136 4156 13868 356 325 -58
18:01:06.688361 587.64 1060 4264 13956 379 317 -59
18:01:06.688602 587.65 1032 4192 13916 284 280 -60
18:01:06.691037 587.66 1008 4228 13900 190 287 -53
18:01:06.705924 587.67 928 4248 13960 245 363 -66
18:01:06.716843 587.68 956 4312 13864 243 363 -53
18:01:06.720997 587.69 956 4320 13960 245 343 -47
18:01:06.742046 587.7 964 4276 13780 204 326 -44
18:01:06.750624 587.71 972 4224 13808 146 305 -48
18:01:06.750892 587.72 1084 4368 13800 142 323 -26
18:01:06.785011 587.73 952 4328 13956 140 309 -34
18:01:06.785112 587.74 1012 4268 13920 143 333 -7
18:01:06.785175 587.75 908 4276 13888 150 315 -35
18:01:06.796147 587.76 1048 4292 13828 142 302 7
18:01:06.819029 587.77 992 4332 13808 125 290 -8
18:01:06.819225 587.78 944 4448 13788 131 291 -33
18:01:06.826205 587.79 1080 4460 13708 159 315 -32
18:01:06.840382 587.8 1068 4440 13928 77 291 -18
18:01:06.850627 587.81 1032 4356 13796 42 281 -33
18:01:06.856013 587.82 960 4328 13828 21 285 -25
18:01:06.876378 587.83 1000 4332 13796 49 285 -17
18:01:06.885338 587.84 1076 4420 13944 54 276 -16
18:01:06.885990 587.85 980 4312 13904 32 269 -16
18:01:06.893717 587.86 936 4356 13776 -19 281 -31
18:01:06.912630 587.87 896 4320 13904 12 271 -28
18:01:06.920859 587.88 1012 4412 13864 -29 288 -48
18:01:06.923377 587.89 1044 4432 13716 -10 247 -40
18:01:06.943360 587.9 916 4352 13872 -68 259 -8
18:01:06.955275 587.91 968 4356 13816 -115 235 -27
18:01:06.955427 587.92 988 4444 13984 -82 258 -4
18:01:06.961361 587.93 1008 4296 13720 -79 280 -37
18:01:06.976650 587.94 1076 4388 13844 -99 254 -49
18:01:06.984190 587.95 876 4340 13908 -164 302 -8
18:01:06.991081 587.96 1024 4412 13744 -262 279 -8
18:01:07.006266 587.97 932 4428 13772 -403 178 18
18:01:07.021818 587.98 1056 4340 13652 -492 112 22
18:01:07.028948 587.99 1004 4328 13868 -412 183 44
18:01:07.043358 588.0 912 4288 13932 -206 327 -38
18:01:07.051374 588.01 920 4496 13844 -171 313 -32
18:01:07.051562 588.02 936 4340 13896 -308 280 -8
18:01:07.078236 588.03 932 4324 13824 -454 230 -6
18:01:07.086650 588.04 992 4332 13736 -560 163 0
18:01:07.086929 588.05 1012 4316 14004 -522 123 22
18:01:07.096621 588.06 916 4348 14056 -666 63 96
18:01:07.108582 588.07 848 4300 13376 -1450 -34 185
18:01:07.119811 588.08 1056 4244 13764 -1370 -34 160
18:01:07.139680 588.09 1196 4192 14456 -35 420 -5
18:01:07.159166 588.1 924 4456 14068 -220 -1 15
18:01:07.159266 588.11 836 4320 13784 -1070 -242 143
18:01:07.159340 588.12 944 4148 13760 -1263 34 139
18:01:07.163504 588.13 800 4104 13436 -1642 -170 245
18:01:07.190300 588.14 944 3808 13564 -1377 -382 237
18:01:07.195887 588.15 1128 3936 13836 -673 -168 139
18:01:07.197100 588.16 1148 4184 14116 -405 -108 53
18:01:07.201695 588.17 1000 4204 14000 -431 -144 61
18:01:07.224209 588.18 1052 4252 14008 -541 -66 68
18:01:07.224401 588.19 1004 4176 14080 -554 12 109
18:01:07.232207 588.2 1056 4224 14052 -702 -92 100
18:01:07.256163 588.21 1080 4240 14040 -935 -50 113
18:01:07.256334 588.22 1084 4224 13860 -1059 73 88
18:01:07.261547 588.23 988 4092 13800 -1103 76 77
18:01:07.275908 588.24 1060 3944 13892 -1129 58 116
18:01:07.292977 588.25 964 3956 13900 -1074 53 103
18:01:07.294196 588.26 1128 4020 13824 -1074 -15 119
18:01:07.306490 588.27 1188 3992 13920 -1083 -22 136
18:01:07.328130 588.28 1192 3928 13916 -1081 -27 135
18:01:07.328687 588.29 1148 3928 13984 -1174 -8 134
18:01:07.340641 588.3 1256 3884 13956 -1301 -4 149
18:01:07.355794 588.31 1028 3868 14068 -1262 90 122
18:01:07.355954 588.32 1176 3904 14012 -1284 17 152
18:01:07.366131 588.33 1140 3920 14000 -1399 43 162
18:01:07.396754 588.34 1172 3776 14020 -1476 -14 122
18:01:07.397219 588.35 1152 3816 13952 -1596 -70 184
18:01:07.397540 588.36 1152 3680 13924 -1649 -66 174
18:01:07.415002 588.37 1212 3740 13952 -1573 -72 173
18:01:07.425390 588.38 1208 3736 14004 -1501 -24 162
18:01:07.431232 588.39 1120 3716 14088 -1289 18 156
18:01:07.441855 588.4 1128 3756 14132 -1145 95 92
18:01:07.448842 588.41 1148 3736 13996 -1142 166 78
18:01:07.466503 588.42 1196 3684 14104 -1099 233 19
18:01:07.476593 588.43 1060 3616 14120 -1279 219 113
18:01:07.476738 588.44 1216 3592 13952 -1772 -55 198
18:01:07.495917 588.45 1208 3336 13864 -2013 -130 168
18:01:07.510532 588.46 1256 3364 13948 -1296 -34 79
18:01:07.510689 588.47 1172 3348 14152 -991 -114 67
18:01:07.516905 588.48 1116 3460 14100 -1157 -44 89
18:01:07.547917 588.49 1248 3388 14120 -1367 -53 130
18:01:07.548435 588.5 1136 3460 14028 -1435 -104 139
18:01:07.548785 588.51 1204 3460 14228 -1391 -131 125
18:01:07.553618 588.52 1224 3392 14156 -1502 -200 150
18:01:07.577802 588.53 1264 3424 14032 -1596 -161 165
18:01:07.578026 588.54 1356 3320 14188 -1540 -61 106
18:01:07.593414 588.55 1204 3324 14112 -1412 -74 101
18:01:07.601045 588.56 1248 3324 14024 -1565 -1 80
18:01:07.614917 588.57 1312 3200 14032 -1675 -20 91
18:01:07.623896 588.58 1188 3048 14128 -1664 -84 110
18:01:07.628418 588.59 1312 2968 14016 -1650 -122 100
18:01:07.643893 588.6 1308 3068 14188 -1564 -62 87
18:01:07.656516 588.61 1324 3000 14060 -1507 -142 26
18:01:07.656725 588.62 1200 2932 14040 -1517 -167 87
18:01:07.666301 588.63 1256 2980 14152 -1453 -152 95
18:01:07.680430 588.64 1260 2944 14192 -1291 -109 58
18:01:07.688383 588.65 1336 2844 14076 -1272 -113 61
18:01:07.695797 588.66 1308 2920 14168 -1307 -103 70
18:01:07.715281 588.67 1220 2848 14140 -1315 -77 96
18:01:07.723019 588.68 1424 2928 14140 -1389 -89 88
18:01:07.726060 588.69 1408 2784 14160 -1424 -46 93
18:01:07.733732 588.7 1396 2804 14152 -1406 -60 86
18:01:07.741497 588.71 1372 2784 14192 -1269 -38 99
18:01:07.767709 588.72 1240 2832 14124 -1188 -28 60
18:01:07.767839 588.73 1320 2824 14128 -1208 -36 39
18:01:07.771528 588.74 1320 2780 14116 -1233 15 22
18:01:07.786044 588.75 1320 2740 14204 -1250 1 34
18:01:07.793648 588.76 1340 2656 14308 -1257 -59 64
18:01:07.806969 588.77 1360 2676 14144 -1232 -35 53
18:01:07.816172 588.78 1448 2608 14036 -1230 -28 61
18:01:07.836224 588.79 1396 2548 14148 -1278 -66 49
18:01:07.845076 588.8 1464 2532 14104 -1306 -66 54
18:01:07.846604 588.81 1364 2500 14160 -1174 -39 12
18:01:07.861868 588.82 1392 2516 14136 -1133 -13 27
18:01:07.868387 588.83 1408 2488 14256 -1167 27 1
18:01:07.879107 588.84 1400 2460 14304 -1050 -2 -7
18:01:07.893879 588.85 1440 2440 14212 -1043 5 6
18:01:07.894037 588.86 1428 2368 14196 -1061 15 29
18:01:07.913734 588.87 1412 2384 14240 -1072 25 4
18:01:07.925372 588.88 1376 2352 14196 -1026 -8 16
18:01:07.925567 588.89 1444 2324 14328 -994 41 8
18:01:07.944037 588.9 1404 2348 14168 -948 56 -17
18:01:07.960763 588.91 1400 2284 14188 -962 4 10
18:01:07.960925 588.92 1428 2304 14204 -1128 22 35
18:01:07.966100 588.93 1516 2296 14152 -1250 -135 39
18:01:07.983380 588.94 1600 2288 14056 -1206 -126 61
18:01:07.995830 588.95 1456 2220 14308 -913 30 4
18:01:07.996090 588.96 1524 2248 14420 -613 199 -26
18:01:08.012909 588.97 1636 2236 14316 -624 158 -4
18:01:08.026677 588.98 1464 2228 14236 -712 106 38
18:01:08.026796 588.99 1468 2168 14132 -752 53 32
18:01:08.033919 589.0 1436 2116 14052 -687 -70 17
18:01:08.049227 589.01 1544 2200 14356 -574 125 25
18:01:08.064702 589.02 1512 2232 14324 -908 220 74
18:01:08.064809 589.03 1456 2320 13524 -1933 -224 150
18:01:08.076907 589.04 1776 1924 14084 -1417 -52 62
18:01:08.097688 589.05 1656 2128 14780 319 208 -135
18:01:08.097880 589.06 1300 2168 13988 -666 -375 60
18:01:08.100997 589.07 1700 1920 14336 -829 -157 79
18:01:08.116381 589.08 1412 2084 14180 -286 360 -14
18:01:08.132375 589.09 1356 2044 13764 -1322 -447 148
18:01:08.132808 589.1 1676 1884 14044 -779 -2 89
18:01:08.146091 589.11 1628 2108 14560 61 375 -45
18:01:08.153469 589.12 1604 2108 14724 72 354 -68
18:01:08.166411 589.13 1464 2244 14392 -63 200 -25
18:01:08.176328 589.14 1412 2176 14348 -243 259 0
18:01:08.195153 589.15 1480 2188 14276 -305 292 41
18:01:08.208313 589.16 1524 2084 14108 -383 122 38
18:01:08.208408 589.17 1532 2040 14360 -546 36 64
18:01:08.213355 589.18 1596 2072 14280 -675 62 89
18:01:08.221455 589.19 1420 1920 13904 -712 58 74
18:01:08.241396 589.2 1524 1872 13792 -464 70 80
18:01:08.243450 589.21 1500 1840 14012 98 162 44
18:01:08.251506 589.22 1616 1832 14148 475 263 7
18:01:08.266335 589.23 1588 1932 14392 693 286 -33
18:01:08.277424 589.24 1596 2020 14416 806 352 -55
18:01:08.281103 589.25 1616 2032 14420 712 416 -53
18:01:08.301497 589.26 1584 1992 14412 599 466 -29
18:01:08.309436 589.27 1548 2120 14220 453 429 -33
18:01:08.310958 589.28 1488 2060 14240 456 451 -55
18:01:08.327073 589.29 1572 2080 13984 406 331 -16
18:01:08.341211 589.3 1640 2124 14016 409 325 -24
18:01:08.341333 589.31 1584 2212 14288 557 350 -10
18:01:08.365518 589.32 1600 2220 14088 673 371 15
18:01:08.376020 589.33 1544 2184 14316 846 406 -33
18:01:08.376193 589.34 1480 2148 14188 1018 418 -21
18:01:08.386011 589.35 1560 2268 14216 1162 465 -41
18:01:08.403613 589.36 1520 2272 14352 1136 407 -64
18:01:08.416702 589.37 1588 2340 14328 1308 648 -72
18:01:08.416877 589.38 1312 2432 14116 933 395 -12
18:01:08.437351 589.39 1584 2244 13872 731 385 21
18:01:08.446210 589.4 1524 2288 14236 1248 488 -67
18:01:08.446326 589.41 1544 2348 14076 1241 364 -80
18:01:08.454859 589.42 1548 2396 14076 1223 406 -82
18:01:08.475395 589.43 1492 2448 14224 1397 519 -60
18:01:08.475864 589.44 1504 2504 14244 1474 498 -90
18:01:08.483235 589.45 1532 2624 14224 1454 468 -63
18:01:08.498436 589.46 1496 2528 14100 1390 434 -66
18:01:08.509404 589.47 1500 2556 14204 1345 450 -89
18:01:08.520929 589.48 1528 2620 14300 1520 505 -82
18:01:08.535894 589.49 1376 2688 14208 1631 520 -92
18:01:08.547825 589.5 1472 2660 14224 1536 620 -87
18:01:08.547940 589.51 1352 2756 14260 1434 629 -115
18:01:08.569676 589.52 1364 2764 14108 1291 669 -109
18:01:08.581852 589.53 1332 2704 14220 1157 573 -101
18:01:08.581979 589.54 1400 2704 14136 1109 585 -76
18:01:08.589260 589.55 1356 2844 14256 923 530 -59
18:01:08.612838 589.56 1268 2864 14084 750 474 -66
18:01:08.612954 589.57 1300 2768 14124 706 443 -86
18:01:08.618805 589.58 1368 2848 14124 734 435 -66
18:01:08.636661 589.59 1300 2880 14048 794 415 -95
18:01:08.648605 589.6 1380 2968 14132 806 371 -61
18:01:08.648758 589.61 1328 3048 14100 748 428 -64
18:01:08.664444 589.62 1328 2904 14180 788 456 -58
18:01:08.675317 589.63 1368 3004 14144 836 498 -56
18:01:08.678393 589.64 1324 2936 14036 868 462 -60
18:01:08.686373 589.65 1432 3056 14032 973 516 -37
18:01:08.700889 589.66 1204 3044 14036 1064 491 -51
18:01:08.709586 589.67 1292 3068 13988 1097 535 -77
18:01:08.715898 589.68 1280 3000 13980 1177 508 -67
18:01:08.732337 589.69 1232 3176 14128 1238 547 -85
18:01:08.744101 589.7 1224 3132 14172 1192 550 -105
18:01:08.745894 589.71 1308 3284 14068 1162 554 -89
18:01:08.753531 589.72 1188 3264 14092 1062 508 -81
18:01:08.768327 589.73 1296 3244 14376 1023 528 -64
18:01:08.777341 589.74 1344 3288 14116 1007 509 -70
18:01:08.783267 589.75 1224 3352 13996 1027 527 -109
18:01:08.798700 589.76 1172 3424 14224 1016 521 -48
18:01:08.810862 589.77 1324 3352 14096 922 493 -73
18:01:08.821599 589.78 1336 3336 13988 826 426 -63
18:01:08.838164 589.79 1180 3388 13960 717 352 -25
18:01:08.844674 589.8 1172 3344 13908 660 365 -36
18:01:08.851277 589.81 1212 3420 14252 1026 466 -78
18:01:08.867832 589.82 1256 3588 14188 1167 612 -113
18:01:08.879118 589.83 1232 3464 14076 1159 584 -130
18:01:08.880887 589.84 1200 3528 14000 1016 545 -103
18:01:08.888630 589.85 1180 3484 13916 805 432 -93
18:01:08.900303 589.86 1188 3548 14024 929 403 -47
18:01:08.911408 589.87 1160 3564 14116 1060 349 -62
18:01:08.918618 589.88 1008 3628 14040 426 409 76
18:01:08.931239 589.89 1164 3572 13504 -385 22 103
18:01:08.947602 589.9 1412 3424 14396 679 465 -75
18:01:08.948384 589.91 1272 3752 14392 1756 569 -200
18:01:08.969173 589.92 1216 3784 14044 782 139 -4
18:01:08.980526 589.93 1248 3660 14032 385 282 -27
18:01:08.981609 589.94 1128 3732 13740 219 409 18
18:01:08.985877 589.95 1116 3628 13384 -261 -7 125
18:01:09.000955 589.96 1276 3436 13512 320 219 43
18:01:09.018124 589.97 1236 3680 13916 996 271 -63
18:01:09.019610 589.98 1156 3784 14156 1278 203 -98
18:01:09.034888 589.99 1160 3896 14240 1321 218 -104
18:01:09.056129 590.0 1072 3868 14076 1255 342 -84
18:01:09.058799 590.01 1024 3920 14060 1183 364 -72
18:01:09.082441 590.02 1080 4084 14064 1021 306 -44
18:01:09.082619 590.03 1212 4036 14188 732 395 -60
18:01:09.113240 590.04 1096 4044 14132 569 429 -48
18:01:09.119861 590.05 1012 4048 13700 445 422 -71
18:01:09.119986 590.06 1136 3948 13860 508 423 -64
18:01:09.137178 590.07 1204 3904 13816 720 402 -79
18:01:09.174083 590.08 1236 3900 13812 779 311 -51
18:01:09.284148 590.09 1196 3960 13924 794 320 -71
18:01:09.287513 590.1 1152 3944 14004 741 356 -79
18:01:09.287678 590.11 1140 3988 13972 667 314 -71
18:01:09.287803 590.12 1076 3984 14032 530 346 -72
18:01:09.289022 590.13 1036 4044 13884 490 351 -64
18:01:09.304237 590.14 1092 4040 13932 425 401 -41
18:01:09.313593 590.15 1140 4064 13908 383 290 -44
18:01:09.313821 590.16 1108 4048 13984 319 304 -56
18:01:09.315065 590.17 1120 4132 13900 300 285 -8
18:01:09.318694 590.18 1112 4112 13852 323 307 -50
18:01:09.321084 590.19 1000 4312 13776 380 426 -5
18:01:09.322996 590.2 1052 4260 13604 -113 243 24
18:01:09.324016 590.21 1124 4140 13864 279 389 -82
18:01:09.324761 590.22 1068 4204 13924 517 337 -73
18:01:09.331091 590.23 1080 4188 13716 331 290 -42
18:01:09.346639 590.24 1076 4260 13660 167 319 1
18:01:09.353577 590.25 1052 4200 13812 136 243 -1
18:01:09.370311 590.26 1024 4244 13924 257 177 -15
18:01:09.381043 590.27 1152 4340 14028 252 148 -9
18:01:09.381338 590.28 1144 4252 13976 206 213 -36
18:01:09.391523 590.29 1104 4360 13848 228 276 -52
18:01:09.415524 590.3 1060 4364 14000 270 279 -52
18:01:09.416676 590.31 1076 4284 14064 170 286 -57
18:01:09.421031 590.32 1072 4352 13848 123 282 -14
18:01:09.436405 590.33 1056 4336 13908 157 243 -26
18:01:09.453055 590.34 1056 4224 13888 240 286 -56
18:01:09.454725 590.35 1104 4288 13840 214 241 -26
18:01:09.475571 590.36 1096 4296 13844 54 223 -12
18:01:09.482365 590.37 1052 4264 13920 27 269 -20
18:01:09.544680 590.38 1032 4388 13832 69 293 -20
18:01:09.547270 590.39 1000 4332 13772 61 308 -26
18:01:09.547727 590.4 1012 4248 13764 30 281 -20
18:01:09.548965 590.41 1048 4356 13880 -5 307 -37
18:01:09.550090 590.42 936 4388 13860 -58 273 -3
18:01:09.561629 590.43 1052 4432 13816 -70 284 25
18:01:09.587081 590.44 1152 4292 13904 -26 280 15
18:01:09.587228 590.45 944 4436 13892 -10 253 -18
18:01:09.587344 590.46 988 4364 13608 -27 252 -21
18:01:09.596181 590.47 988 4460 13780 -96 262 -7
18:01:09.621474 590.48 992 4420 13816 -36 264 -20
18:01:09.621675 590.49 1032 4468 13884 -86 293 6
18:01:09.622050 590.5 856 4360 13844 -136 255 -20
18:01:09.622432 590.51 976 4312 13756 -160 253 19
18:01:09.660064 590.52 1024 4368 13712 -189 254 -13
18:01:09.661732 590.53 996 4448 13672 -202 217 -9
18:01:09.685093 590.54 1028 4292 13896 -201 220 -6
18:01:09.685258 590.55 988 4372 13800 -207 246 -10
18:01:09.748358 590.56 1072 4452 13708 -213 287 12
18:01:09.758462 590.57 1000 4380 14044 -188 244 0
18:01:09.758617 590.58 1040 4460 13884 -202 243 -5
18:01:09.758803 590.59 1000 4320 13960 -324 214 28
18:01:09.759053 590.6 1080 4368 13868 -431 132 31
18:01:09.759444 590.61 1072 4324 13764 -613 105 30
18:01:09.759899 590.62 1008 4260 13640 -696 100 40
18:01:09.856767 590.63 1016 4256 13956 -625 172 21
18:01:09.866805 590.64 1004 4296 14072 -455 283 -19
18:01:09.890033 590.65 1096 4340 13984 -541 245 1
18:01:09.902269 590.66 1008 4364 14008 -746 175 1
18:01:09.922862 590.67 920 4308 13828 -914 121 31
18:01:09.934937 590.68 1064 4264 13868 -1036 35 59
18:01:09.935074 590.69 1092 4256 14056 -975 -18 95
18:01:09.935166 590.7 972 4256 13960 -1213 -42 183
18:01:09.935253 590.71 1000 4260 13304 -2089 -219 272
18:01:09.935338 590.72 1200 4116 13960 -1793 -1 189
18:01:09.976083 590.73 1184 4152 13824 -1866 -228 186
18:01:09.977468 590.74 1028 4004 13636 -2118 -43 260
18:01:09.978405 590.75 1208 3840 14040 -1206 -252 182
18:01:10.320701 590.76 1140 3976 14400 -1065 -271 146
18:01:10.336812 590.77 1152 4012 14136 -1242 -286 167
18:01:10.337194 590.78 1092 3900 14256 -1297 -105 166
18:01:10.337606 590.79 1032 3984 14184 -1444 -147 209
18:01:10.338009 590.8 1188 3896 14060 -1678 -157 202
18:01:10.338498 590.81 1128 3936 14136 -1879 -39 225
18:01:10.340762 590.82 1100 3800 14016 -2035 -13 197
18:01:10.342752 590.83 1128 3632 13812 -2003 -76 212
18:01:10.344440 590.84 1248 3560 13676 -1827 -122 197
18:01:10.345486 590.85 1160 3416 13804 -1677 -211 165
18:01:10.367631 590.86 1404 2676 14204 -1314 5 49
18:01:10.403077 590.87 1368 2724 13988 -1323 -89 36
18:01:10.405952 590.88 1388 2760 14104 -1252 -22 29
18:01:10.406133 590.89 1372 2664 14132 -1218 -79 46
18:01:10.406315 590.9 1404 2748 14124 -1216 -79 54
18:01:10.409014 590.91 1392 2664 14092 -1118 -44 63
18:01:10.410212 590.92 1508 2508 14108 -1018 -28 26
18:01:10.434007 590.93 1396 2596 14112 -916 -64 45
18:01:10.437223 590.94 1428 2712 14124 -1010 37 33
18:01:10.437368 590.95 1388 2576 14088 -1051 -14 79
18:01:10.438743 590.96 1424 2572 14240 -1117 18 44
18:01:10.469172 590.97 1552 2512 14244 -1031 -43 62
18:01:10.470276 590.98 1464 2652 14168 -1048 -4 49
18:01:10.502342 590.99 1492 2576 14176 -1065 12 41
18:01:10.542833 591.0 1500 2552 14048 -1034 50 30
18:01:10.546748 591.01 1420 2528 14116 -1006 5 46
18:01:10.548322 591.02 1532 2448 14196 -1013 25 39
18:01:10.571226 591.03 1520 2428 14280 -927 11 38
18:01:10.571472 591.04 1604 2408 14044 -920 47 59
18:01:10.571836 591.05 1612 2440 14128 -952 53 8
18:01:10.572198 591.06 1536 2480 14224 -914 42 15
18:01:10.572559 591.07 1484 2380 14296 -906 25 35
18:01:10.572916 591.08 1508 2272 14336 -920 75 -23
18:01:10.573270 591.09 1376 2352 14212 -796 65 8
18:01:10.595803 591.1 1580 2404 14084 -747 26 6
18:01:10.605580 591.11 1524 2288 14224 -856 87 -5
18:01:10.612208 591.12 1464 2196 14260 -790 77 14
18:01:10.613483 591.13 1528 2288 14012 -800 50 -2
18:01:10.614544 591.14 1576 2228 14124 -752 69 14
18:01:10.630997 591.15 1548 2232 14236 -690 73 25
18:01:10.645739 591.16 1424 2196 14304 -657 64 2
18:01:10.647227 591.17 1612 2248 14120 -883 -11 38
18:01:10.661656 591.18 1512 2064 14096 -890 -40 57
18:01:10.670710 591.19 1612 2052 14272 -555 133 -4
18:01:10.683159 591.2 1556 2092 14332 -353 191 -10
18:01:10.705806 591.21 1572 2188 14308 -290 216 -34
18:01:10.706162 591.22 1520 2172 14296 -301 116 -9
18:01:10.707276 591.23 1496 2116 14044 -316 68 48
18:01:10.728488 591.24 1608 2056 14096 -230 11 55
18:01:10.738601 591.25 1580 2180 14500 54 211 24
18:01:10.740949 591.26 1540 2304 14372 -133 338 45
18:01:10.769958 591.27 1464 2196 13612 -1102 29 129
18:01:10.771851 591.28 1732 1844 14288 -535 256 77
18:01:10.771996 591.29 1748 2112 14632 911 407 -135
18:01:10.778755 591.3 1524 2196 13812 -103 -203 33
18:01:10.798972 591.31 1824 1956 14328 276 274 -13
18:01:10.807182 591.32 1564 2292 14020 246 301 13
18:01:10.808206 591.33 1464 2020 13720 -488 -219 158
18:01:10.816677 591.34 1660 2036 14152 190 275 46
18:01:10.843044 591.35 1596 2228 14360 700 531 -61
18:01:10.843154 591.36 1480 2296 14548 902 478 -104
18:01:10.845886 591.37 1548 2416 14384 732 369 -39
18:01:10.861085 591.38 1572 2340 14132 427 462 -8
18:01:10.877631 591.39 1540 2344 14216 399 453 30
18:01:10.878001 591.4 1496 2340 14392 334 254 18
18:01:10.900794 591.41 1616 2364 14364 195 194 41
18:01:10.906754 591.42 1540 2300 14208 81 193 46
18:01:10.906857 591.43 1484 2200 13880 113 239 39
18:01:10.930110 591.44 1524 2168 13992 287 293 33
18:01:10.938338 591.45 1540 2160 14088 663 276 -15
18:01:10.943429 591.46 1664 2216 14160 1031 288 -23
18:01:10.960548 591.47 1728 2236 14180 1246 304 -44
18:01:10.975947 591.48 1692 2296 14196 1370 352 -69
18:01:10.976101 591.49 1648 2316 14184 1336 403 -70
18:01:10.981125 591.5 1596 2324 14168 1372 475 -78
18:01:10.995993 591.51 1616 2496 14120 1359 485 -56
18:01:11.007877 591.52 1612 2468 14192 1443 509 -70
18:01:11.026724 591.53 1496 2452 14132 1450 489 -25
18:01:11.040172 591.54 1540 2584 13948 1394 510 -74
18:01:11.043074 591.55 1488 2692 13960 1436 490 -38
18:01:11.044937 591.56 1572 2704 14196 1615 520 -74
18:01:11.048562 591.57 1552 2756 14064 1811 590 -96
18:01:11.064188 591.58 1416 2828 14132 2040 610 -120
18:01:11.078519 591.59 1416 2952 14148 2065 586 -96
18:01:11.104553 591.6 1384 2940 14320 1990 812 -157
18:01:11.106661 591.61 1352 3020 14056 1693 688 -81
18:01:11.133504 591.62 1312 2888 14000 1293 545 -37
18:01:11.141384 591.63 1436 2968 14016 1348 665 -110
18:01:11.141566 591.64 1356 2980 14084 1379 477 -125
18:01:11.162098 591.65 1472 3068 14172 1565 581 -125
18:01:11.178076 591.66 1420 3088 14092 1543 592 -170
18:01:11.199521 591.67 1548 3076 13880 1386 544 -91
18:01:11.214105 591.68 1408 3088 14076 1482 497 -115
18:01:11.304687 591.69 1332 3180 14140 1439 386 -108
18:01:11.314455 591.7 1480 3248 14232 1352 406 -93
18:01:11.314602 591.71 1420 3152 14124 1381 474 -109
18:01:11.314831 591.72 1312 3212 14132 1537 503 -126
18:01:11.315074 591.73 1368 3384 14096 1512 543 -157
18:01:11.315483 591.74 1348 3292 13948 1391 553 -178
18:01:11.315891 591.75 1420 3336 14008 1282 575 -136
18:01:11.316443 591.76 1308 3308 14008 1293 576 -140
18:01:11.316919 591.77 1388 3404 14116 1341 632 -151
18:01:11.317274 591.78 1304 3452 14076 1134 515 -103
18:01:11.317797 591.79 1356 3488 14028 1062 510 -105
18:01:11.318337 591.8 1252 3536 14036 1049 489 -115
18:01:11.362269 591.81 1184 3536 13960 1099 560 -128
18:01:11.385385 591.82 1248 3540 14216 1061 538 -125
18:01:11.385784 591.83 1236 3608 14076 974 496 -94
18:01:11.390465 591.84 1236 3660 14088 850 482 -65
18:01:11.413891 591.85 1268 3704 14108 808 423 -52
18:01:11.414263 591.86 1196 3732 14112 759 426 -87
18:01:11.414636 591.87 1400 3712 14032 708 426 -54
18:01:11.414801 591.88 1212 3724 14140 748 382 -72
18:01:11.432612 591.89 1272 3756 14104 715 391 -60
18:01:11.443494 591.9 1280 3764 14060 692 405 -82
18:01:11.443604 591.91 1224 3828 13928 743 401 -101
18:01:11.443680 591.92 1296 3844 14092 750 423 -78
18:01:11.443769 591.93 1204 3864 13980 699 390 -93
18:01:11.461281 591.94 1276 3768 13984 636 383 -73
18:01:11.471809 591.95 1132 3864 13948 583 386 -58
18:01:11.471930 591.96 1204 3864 13952 619 350 -75
18:01:11.476354 591.97 1224 3872 13868 664 395 -89
18:01:11.498744 591.98 1212 3912 14040 651 424 -94
18:01:11.498875 591.99 1128 3908 13804 624 399 -108
18:01:11.515364 592.0 1276 3976 14036 706 390 -89
18:01:11.527154 592.01 1244 4020 13952 681 415 -105
18:01:11.528635 592.02 1236 4004 13880 635 393 -67
18:01:11.545538 592.03 1156 3956 13932 413 306 -45
18:01:11.557200 592.04 1216 3980 13780 324 256 -18
18:01:11.558750 592.05 1208 3876 13944 449 289 -54
18:01:11.575976 592.06 996 3980 14028 702 485 -86
18:01:11.584965 592.07 1168 4052 14064 853 529 -124
18:01:11.602254 592.08 1148 4148 13872 739 489 -92
18:01:11.614493 592.09 1204 4144 13780 497 419 -72
18:01:11.614673 592.1 1148 4052 13940 424 366 -97
18:01:11.619437 592.11 1208 4036 13888 530 335 -47
18:01:11.644135 592.12 1160 4200 14020 363 255 19
18:01:11.659872 592.13 928 4208 13360 -483 116 113
18:01:11.703680 592.14 1212 4108 13984 -85 324 -12
18:01:11.719544 592.15 1364 4252 14516 1056 651 -174
18:01:11.732440 592.16 1024 4324 14052 702 218 -76
18:01:11.733080 592.17 1280 4164 13840 20 119 32
18:01:11.733358 592.18 1028 4080 13800 -18 322 21
18:01:11.733641 592.19 948 4028 13480 -705 -46 178
18:01:11.734093 592.2 1160 3808 13432 -283 58 114
18:01:11.734415 592.21 1260 4072 13588 170 187 30
18:01:11.734950 592.22 1148 4184 13968 422 69 -1
18:01:11.752384 592.23 1072 4260 14084 594 -73 -4
18:01:11.765509 592.24 1140 4236 13988 450 13 -7
18:01:11.770642 592.25 1024 4236 14072 386 172 -14
18:01:11.793426 592.26 1028 4300 13944 344 127 2
18:01:11.793723 592.27 1192 4312 14000 225 273 -58
18:01:11.794872 592.28 1068 4312 13844 182 358 -68
18:01:11.816416 592.29 1116 4336 13824 116 383 -68
18:01:11.826505 592.3 1128 4268 13836 146 352 -51
18:01:11.870618 592.31 1124 4208 13812 316 303 -46
18:01:11.881786 592.32 1220 4180 13856 374 291 -39
18:01:11.882112 592.33 1100 4176 13976 395 256 -52
18:01:11.882449 592.34 1140 4260 13872 324 241 -38
18:01:11.882625 592.35 1084 4264 14028 232 257 -33
18:01:11.882936 592.36 1212 4460 13976 166 282 -23
18:01:11.901296 592.37 1108 4212 13872 105 276 -7
18:01:11.911285 592.38 1140 4288 13884 93 369 -24
18:01:11.911796 592.39 1128 4376 13816 63 297 -23
18:01:11.912135 592.4 1160 4248 13764 18 325 -29
18:01:11.935600 592.41 1160 4292 13852 -11 306 -18
18:01:11.936733 592.42 1116 4416 13784 12 297 -20
18:01:11.948799 592.43 1028 4284 13900 84 323 -32
18:01:11.985571 592.44 1136 4276 13880 123 352 -46
18:01:11.993395 592.45 1152 4372 13796 217 330 -36
18:01:11.993509 592.46 1236 4476 13688 202 301 -48
18:01:11.993596 592.47 1164 4456 14164 260 359 -59
18:01:11.993677 592.48 1088 4436 13984 196 508 -15
18:01:12.008631 592.49 1036 4400 13504 -393 185 42
18:01:12.032027 592.5 1224 4268 13784 -69 390 -24
18:01:12.051581 592.51 996 4356 13984 191 346 -52
18:01:12.061960 592.52 1084 4340 13976 75 269 -75
18:01:12.062130 592.53 996 4344 13816 -55 234 -17
18:01:12.071269 592.54 1040 4468 13696 -206 201 21
18:01:12.072745 592.55 1028 4356 13908 -138 177 13
18:01:12.092020 592.56 1140 4368 13908 -112 120 18
18:01:12.139621 592.57 1100 4444 13992 -220 193 -10
18:01:12.156081 592.58 1028 4420 13944 -236 226 -1
18:01:12.164747 592.59 992 4428 13876 -326 235 -25
18:01:12.164879 592.6 1216 4524 13832 -487 164 -2
18:01:12.164977 592.61 1028 4380 13996 -572 155 23
18:01:12.174236 592.62 1208 4456 13816 -694 141 32
18:01:12.198549 592.63 1096 4352 13960 -644 116 20
18:01:12.198690 592.64 1252 4316 13936 -688 103 3
18:01:12.198914 592.65 1148 4408 13964 -803 104 65
18:01:12.199067 592.66 1104 4332 13900 -994 26 86
18:01:12.199177 592.67 1172 4244 13780 -1052 94 111
18:01:12.203659 592.68 1056 4196 13752 -1072 43 128
18:01:12.258560 592.69 1052 4212 13832 -957 68 78
18:01:12.263449 592.7 1112 4300 13984 -975 109 95
18:01:12.263845 592.71 1236 4216 13840 -1098 115 114
18:01:12.265167 592.72 1188 4268 13796 -1205 36 115
18:01:12.266408 592.73 1128 4300 13880 -1320 33 134
18:01:12.269866 592.74 1156 4200 13884 -1452 52 161
18:01:12.288537 592.75 1152 4132 13916 -1447 25 147
18:01:12.294953 592.76 1168 4012 13900 -1501 -59 150
18:01:12.322425 592.77 1100 4044 13968 -1462 -35 153
18:01:12.331536 592.78 1220 4064 13960 -1480 -22 168
18:01:12.331724 592.79 1116 4000 14032 -1489 69 162
18:01:12.355538 592.8 1028 3920 13972 -1485 -87 142
18:01:12.363896 592.81 1188 3884 13932 -1528 -53 166
18:01:12.364084 592.82 1216 3876 13884 -1549 -14 178
18:01:12.375254 592.83 1232 3864 13932 -1479 -62 166
18:01:12.399635 592.84 1284 3924 13904 -1502 -52 161
18:01:12.399834 592.85 1264 3768 13924 -1502 -23 137
18:01:12.400020 592.86 1264 3832 14028 -1443 -47 131
18:01:12.408239 592.87 1280 3800 13980 -1483 -50 130
18:01:12.429185 592.88 1220 3728 13980 -1590 -11 145
18:01:12.489193 592.89 1176 3704 14008 -1528 7 130
18:01:12.497089 592.9 1240 3684 13996 -1586 -51 143
18:01:12.497239 592.91 1304 3684 13920 -1496 -30 117
18:01:12.497363 592.92 1256 3624 14076 -1446 3 85
18:01:12.497603 592.93 1172 3524 13948 -1554 -37 129
18:01:12.497862 592.94 1272 3560 13900 -1709 -115 155
18:01:12.498124 592.95 1292 3532 13832 -1819 -215 163
18:01:12.509335 592.96 1268 3384 13948 -1769 -237 187
18:01:12.533486 592.97 1344 3380 14028 -1455 -124 155
18:01:12.533763 592.98 1440 3396 14140 -1172 -18 96
18:01:12.533997 592.99 1480 3448 14184 -1097 65 71
18:01:12.542882 593.0 1236 3464 14160 -1235 9 99
18:01:12.571906 593.01 1192 3316 13972 -1485 -125 150
18:01:12.572932 593.02 1216 3232 13836 -1341 -151 129
18:01:12.574077 593.03 1388 3360 14272 -1150 -100 140
18:01:12.576589 593.04 1356 3304 14040 -1696 56 228
18:01:12.606953 593.05 1456 3224 13700 -2429 -346 268
18:01:12.607693 593.06 1600 3036 14600 -1237 150 41
18:01:12.609240 593.07 1324 3208 14212 -730 -237 113
18:01:12.629251 593.08 1364 3100 13680 -1872 -794 215
18:01:12.631713 593.09 1500 2932 14212 -1196 33 81
18:01:12.631823 593.1 1248 3100 13760 -1480 -295 202
18:01:12.697851 593.11 1380 2908 13760 -2056 -540 243
18:01:12.700701 593.12 1532 2900 14192 -1185 -11 95
18:01:12.700904 593.13 1552 3016 14416 -648 29 44
18:01:12.701082 593.14 1448 3092 14428 -805 -87 50
18:01:12.703182 593.15 1452 2984 14264 -1194 -109 119
18:01:12.709045 593.16 1280 3052 14320 -1303 -47 114
18:01:12.732370 593.17 1364 2976 14356 -1470 -70 140
18:01:12.732581 593.18 1404 2984 14248 -1620 -136 153
18:01:12.732779 593.19 1472 2792 14228 -1691 -120 134
18:01:12.770590 593.2 1396 2816 13996 -1796 -112 124
18:01:12.772743 593.21 1548 2708 13764 -1767 -105 101
18:01:12.790911 593.22 1388 2604 13812 -1593 -125 89
18:01:12.798632 593.23 1432 2580 13996 -1123 -195 97
18:01:12.798726 593.24 1672 2580 14180 -887 -89 73
18:01:12.798796 593.25 1552 2620 14396 -767 -80 49
18:01:12.809399 593.26 1560 2640 14360 -770 -2 40
18:01:12.811420 593.27 1536 2596 14340 -764 40 40
18:01:12.811808 593.28 1520 2676 14280 -930 61 20
18:01:12.835139 593.29 1488 2636 14300 -1035 73 43
18:01:12.922802 593.3 1548 2544 14088 -1148 30 42
18:01:12.930426 593.31 1568 2520 14180 -1132 -27 88
18:01:12.930610 593.32 1552 2560 14160 -1147 -51 53
18:01:12.930732 593.33 1576 2500 14284 -1031 -13 52
18:01:12.930856 593.34 1540 2496 14076 -1008 72 32
18:01:12.933949 593.35 1608 2556 14096 -860 48 20
18:01:12.936958 593.36 1540 2640 14236 -746 118 6
18:01:12.939466 593.37 1556 2536 14276 -741 139 1
18:01:12.940980 593.38 1588 2404 14384 -685 208 4
18:01:12.942518 593.39 1484 2460 14260 -563 308 -7
18:01:12.945403 593.4 1624 2536 14032 -911 52 66
18:01:12.968348 593.41 1616 2432 14128 -959 126 34
18:01:12.968492 593.42 1488 2356 14272 -688 -8 22
18:01:12.968601 593.43 1604 2312 14304 -556 45 -5
18:01:12.991925 593.44 1668 2316 14168 -551 -27 27
18:01:13.000527 593.45 1460 2432 14144 -683 1 39
18:01:13.000667 593.46 1652 2404 14176 -696 16 24
18:01:13.006890 593.47 1640 2468 14128 -730 3 18
18:01:13.022117 593.48 1552 2440 14340 -794 -9 6
18:01:13.105031 593.49 1704 2308 14128 -881 53 7
18:01:13.132224 593.5 1532 2316 14104 -819 86 -26
18:01:13.133551 593.51 1624 2324 14152 -640 119 -12
18:01:13.134469 593.52 1492 2272 14196 -601 143 -29
18:01:13.135605 593.53 1568 2264 14152 -590 111 -11
18:01:13.140600 593.54 1620 2076 14328 -577 130 6
18:01:13.156185 593.55 1688 2248 14280 -399 141 -2
18:01:13.169416 593.56 1712 2188 14180 -396 99 18
18:01:13.169782 593.57 1636 2232 14144 -399 92 -4
18:01:13.170143 593.58 1660 2192 14148 -279 152 0
18:01:13.170501 593.59 1640 2196 14328 -165 189 -2
18:01:13.170878 593.6 1676 2164 14144 -114 160 15
18:01:13.171134 593.61 1644 2132 14140 -53 166 31
18:01:13.171288 593.62 1648 2224 14176 -27 225 19
18:01:13.260267 593.63 1664 2268 14044 1 202 49
18:01:13.269400 593.64 1556 2184 13928 41 257 34
18:01:13.269600 593.65 1680 2272 14052 139 310 18
18:01:13.269687 593.66 1608 2212 14132 207 301 9
18:01:13.269768 593.67 1628 2240 14084 258 293 4
18:01:13.269884 593.68 1596 2272 14212 364 339 20
18:01:13.292372 593.69 1672 2216 14212 368 329 -13
18:01:13.299962 593.7 1612 2324 14080 433 341 -38
18:01:13.300074 593.71 1616 2256 14496 552 409 -35
18:01:13.300153 593.72 1576 2384 14116 509 403 -45
18:01:13.300232 593.73 1572 2316 14136 479 337 -30
18:01:13.330863 593.74 1600 2332 14244 492 329 -47
18:01:13.334769 593.75 1584 2352 14256 517 357 -70
18:01:13.338357 593.76 1632 2352 14204 597 369 -49
18:01:13.339961 593.77 1604 2284 14180 619 368 -44
18:01:13.341982 593.78 1584 2404 14108 680 355 -38
18:01:13.343508 593.79 1588 2408 14136 719 371 -51
18:01:13.360682 593.8 1528 2460 13976 750 369 -67
18:01:13.367227 593.81 1604 2424 14328 847 430 -83
18:01:13.394689 593.82 1680 2532 14196 822 429 -51
18:01:13.402406 593.83 1600 2652 14264 711 402 -41
18:01:13.402503 593.84 1592 2584 14208 516 323 -43
18:01:13.426139 593.85 1520 2460 14024 466 181 -35
18:01:13.469894 593.86 1616 2440 14048 598 271 -48
18:01:13.470989 593.87 1580 2600 14240 1044 464 -68
18:01:13.472381 593.88 1604 2580 14404 1291 570 -102
18:01:13.473516 593.89 1556 2644 14364 1304 598 -107
18:01:13.477759 593.9 1508 2680 14268 1099 474 -73
18:01:13.481859 593.91 1484 2680 14004 1101 346 -38
18:01:13.505467 593.92 1488 2588 13896 1268 300 -25
18:01:13.505903 593.93 1580 2800 14388 1451 410 -51
18:01:13.523784 593.94 1388 2908 13972 674 467 42
18:01:13.534923 593.95 1604 2728 13936 266 223 61
18:01:13.535180 593.96 1752 2764 14508 1736 758 -156
18:01:13.545295 593.97 1444 3160 14228 2213 545 -155
18:01:13.546044 593.98 1540 3016 13860 866 0 19
18:01:13.592679 593.99 1676 2864 14272 1274 747 -147
18:01:13.601188 594.0 1332 2932 13728 922 339 -17
18:01:13.601503 594.01 1584 2752 13728 332 120 56
18:01:13.601908 594.02 1600 2852 14068 1274 479 -62
18:01:13.615391 594.03 1460 3104 14544 1801 418 -106
18:01:13.662334 594.04 1496 3172 14512 1689 290 -104
18:01:13.673259 594.05 1308 3224 14168 1385 341 -60
18:01:13.701519 594.06 1364 3220 14296 1306 448 -27
18:01:13.704952 594.07 1472 3244 14268 1255 379 -25
18:01:13.726892 594.08 1464 3348 14160 1058 525 -73
18:01:13.734990 594.09 1376 3312 14040 657 582 -68
18:01:13.735079 594.1 1452 3200 13912 680 557 -69
18:01:13.735147 594.11 1384 3220 13848 817 441 -53
18:01:13.773252 594.12 1440 3208 14032 890 419 -66
18:01:13.782355 594.13 1472 3144 13956 1132 378 -70
18:01:13.804429 594.14 1444 3148 14012 1230 379 -102
18:01:13.804533 594.15 1532 3304 14108 1130 354 -65
18:01:13.804602 594.16 1412 3356 14116 1124 415 -106
18:01:13.804667 594.17 1584 3460 14124 1121 460 -97
18:01:13.804732 594.18 1344 3524 14112 955 486 -105
18:01:13.804797 594.19 1448 3508 14060 914 440 -89
18:01:13.804861 594.2 1408 3452 14008 838 436 -64
18:01:13.804925 594.21 1500 3492 13928 744 433 -77
18:01:13.804990 594.22 1428 3484 14024 728 451 -65
18:01:13.805085 594.23 1364 3544 13860 810 405 -68
18:01:13.818097 594.24 1508 3724 14072 995 459 -93
18:01:13.838033 594.25 1332 3644 14004 1110 421 -113
18:01:13.838134 594.26 1456 3772 13916 1073 384 -123
18:01:13.859700 594.27 1324 3780 14244 1225 728 -145
18:01:13.872547 594.28 1196 3772 13812 945 538 -74
18:01:13.876717 594.29 1388 3736 13824 611 444 -76
18:01:13.894037 594.3 1380 3704 13776 551 421 -70
18:01:13.904161 594.31 1332 3692 13988 943 401 -99
18:01:13.931828 594.32 1284 3768 14004 1049 359 -116
18:01:13.940245 594.33 1304 3820 13892 810 255 -54
18:01:13.940474 594.34 1424 3764 13992 668 313 -87
18:01:13.940806 594.35 1336 3876 14016 602 246 -67
18:01:13.941163 594.36 1372 3828 13904 694 232 -73
18:01:13.959416 594.37 1424 3952 14112 625 255 -71
18:01:13.980107 594.38 1344 3896 13868 601 298 -95
18:01:13.981215 594.39 1292 3828 14048 692 357 -105
18:01:13.981957 594.4 1372 3952 13932 744 317 -78
18:01:14.027094 594.41 1376 4052 13968 617 336 -84
18:01:14.036461 594.42 1344 3960 13956 546 341 -60
18:01:14.036593 594.43 1308 4016 13888 555 288 -52
18:01:14.036695 594.44 1288 3920 13924 568 326 -38
18:01:14.065396 594.45 1348 4012 13916 505 307 -63
18:01:14.073578 594.46 1284 4032 13816 459 313 -46
18:01:14.073679 594.47 1308 3992 13716 443 315 -45
18:01:14.076816 594.48 1368 4036 13852 461 357 -45
18:01:14.077932 594.49 1268 4100 13880 494 393 -93
18:01:14.079014 594.5 1244 4012 13864 462 342 -80
18:01:14.096633 594.51 1244 4088 13772 346 342 -57
18:01:14.110495 594.52 1256 3992 13900 342 331 -52
18:01:14.112098 594.53 1276 4096 13808 288 340 -29
18:01:14.137021 594.54 1204 4092 13900 294 316 -34
18:01:14.139875 594.55 1292 4168 13884 347 310 -1
18:01:14.140167 594.56 1216 4176 13872 323 326 -11
18:01:14.169184 594.57 1228 4124 13976 318 306 -48
18:01:14.201207 594.58 1304 4184 13892 370 315 -59
18:01:14.205602 594.59 1204 4196 13924 423 331 -56
18:01:14.206572 594.6 1264 4180 13884 345 326 -54
18:01:14.207678 594.61 1268 4208 13804 319 344 -43
18:01:14.208893 594.62 1280 4144 13896 245 304 -40
18:01:14.211889 594.63 1180 4148 13868 215 303 -39
18:01:14.214647 594.64 1224 4116 13896 223 285 -28
18:01:14.231875 594.65 1248 4228 13756 239 309 -47
18:01:14.265073 594.66 1288 4228 13828 276 283 -46
18:01:14.273009 594.67 1140 4180 14000 219 315 -39
18:01:14.273106 594.68 1180 4224 13900 230 290 -38
18:01:14.273179 594.69 1260 4292 13772 202 294 -32
18:01:14.273669 594.7 1184 4264 13764 213 298 -46
18:01:14.316724 594.71 1184 4260 13960 195 281 -58
18:01:14.317819 594.72 1384 4296 13844 222 321 -48
18:01:14.320332 594.73 1168 4316 13880 218 296 -42
18:01:14.340270 594.74 1260 4348 13792 159 270 -38
18:01:14.340450 594.75 1184 4312 13728 29 272 -21
18:01:14.340527 594.76 1136 4220 13676 -130 187 -27
18:01:14.348664 594.77 1236 4156 13692 -108 200 -10
18:01:14.433965 594.78 1204 4280 13884 81 385 -49
18:01:14.443254 594.79 1208 4324 13924 224 458 -89
18:01:14.443719 594.8 1168 4376 14076 238 440 -65
18:01:14.444132 594.81 1016 4412 13688 53 357 -44
18:01:14.444522 594.82 1160 4308 13788 -122 314 -28
18:01:14.444914 594.83 1168 4320 13768 -40 265 -31
18:01:14.445304 594.84 1164 4348 14104 -46 168 29
18:01:14.447201 594.85 1144 4376 13384 -738 68 133
18:01:14.476727 594.86 1448 4136 13688 -675 177 70
18:01:14.478599 594.87 1464 4352 14240 431 640 -91
18:01:14.478930 594.88 1112 4392 14084 193 127 -20
18:01:14.486124 594.89 1260 4288 13892 -415 -132 57
18:01:14.510280 594.9 1224 4324 13632 -447 101 81
18:01:14.510595 594.91 1068 4284 13500 -899 -62 168
18:01:14.510828 594.92 1328 3988 13492 -643 -53 127
18:01:14.530499 594.93 1328 4184 13736 -243 53 67
18:01:14.540477 594.94 1336 4408 13992 -99 18 15
18:01:14.545535 594.95 1116 4412 14092 -66 -172 6
18:01:14.547382 594.96 1196 4344 14056 -295 -92 87
18:01:14.551142 594.97 1176 4416 13896 -296 -51 59
18:01:14.570312 594.98 1236 4200 13852 -257 -34 78
18:01:14.583924 594.99 1344 4256 13876 -227 147 38
18:01:14.587011 595.0 1216 4268 13748 -178 195 35
18:01:14.634619 595.01 1248 4224 13604 -206 177 24
18:01:14.644274 595.02 1312 4228 13700 -162 185 30
18:01:14.644556 595.03 1272 4216 13708 -13 150 9
18:01:14.644802 595.04 1260 4184 13880 13 231 24
18:01:14.650752 595.05 1296 4252 13928 -16 197 0
18:01:14.652240 595.06 1260 4312 13988 -139 198 -5
18:01:14.665776 595.07 1296 4284 13880 -261 202 -10
18:01:14.699119 595.08 1216 4292 13912 -347 221 15
18:01:14.708440 595.09 1292 4240 13904 -384 226 28
18:01:14.708588 595.1 1300 4216 13972 -455 156 35
18:01:14.734789 595.11 1264 4300 13984 -475 176 32
18:01:14.744009 595.12 1372 4196 13924 -542 177 56
18:01:14.744209 595.13 1300 4192 13900 -567 167 50
18:01:14.748106 595.14 1296 4220 13828 -517 156 30
18:01:14.749968 595.15 1304 4180 13780 -463 173 44
18:01:14.769406 595.16 1296 4248 13852 -389 204 30
18:01:14.830698 595.17 1272 4224 13992 -378 241 24
18:01:14.841461 595.18 1248 4220 13936 -434 153 -10
18:01:14.867096 595.19 1232 4288 14176 -305 492 -16
18:01:14.876182 595.2 1196 4152 13676 -1016 61 95
18:01:14.876488 595.21 1280 4100 13680 -1057 187 94
18:01:14.876858 595.22 1380 4060 14024 -508 259 9
18:01:14.877224 595.23 1216 4056 13876 -636 78 26
18:01:14.877575 595.24 1232 4148 13900 -783 21 55
18:01:14.877921 595.25 1248 4056 13732 -1014 -31 101
18:01:14.878269 595.26 1220 4116 13816 -1088 -107 170
18:01:14.878620 595.27 1328 4120 13968 -923 -139 137
18:01:14.880889 595.28 1316 4120 14052 -958 -93 136
18:01:14.905607 595.29 1440 4092 14172 -1063 -60 122
18:01:14.909316 595.3 1404 4080 13976 -1252 -37 146
18:01:14.921007 595.31 1308 4028 13888 -1401 9 136
18:01:14.945780 595.32 1292 3992 13840 -1504 -69 147
18:01:14.946235 595.33 1300 3960 13868 -1529 -56 169
18:01:14.949343 595.34 1428 3872 13872 -1459 -45 140
18:01:14.965391 595.35 1356 3808 13948 -1384 -61 143
18:01:14.976455 595.36 1388 3824 14088 -1334 10 128
18:01:15.000814 595.37 1288 3716 14044 -1487 -1 152
18:01:15.010179 595.38 1360 3728 13864 -1666 -45 185
18:01:15.010319 595.39 1424 3708 14016 -1624 5 172
18:01:15.010419 595.4 1416 3620 13996 -1482 -27 157
18:01:15.036766 595.41 1360 3624 13912 -1356 -15 128
18:01:15.045751 595.42 1344 3664 13792 -1426 21 153
18:01:15.048089 595.43 1380 3592 13976 -1662 -5 173
18:01:15.049685 595.44 1372 3596 13952 -1590 43 148
18:01:15.069801 595.45 1392 3616 14112 -1611 25 144
18:01:15.078195 595.46 1264 3532 14000 -1695 -46 160
18:01:15.085774 595.47 1424 3468 13928 -1664 -54 174
18:01:15.087569 595.48 1432 3424 14048 -1557 -67 169
18:01:15.099223 595.49 1396 3420 14068 -1490 -11 175
18:01:15.113271 595.5 1392 3332 14056 -1497 -41 162
18:01:15.121332 595.51 1452 3316 13976 -1526 5 143
18:01:15.149349 595.52 1392 3304 14020 -1533 -76 116
18:01:15.150378 595.53 1444 3292 14084 -1532 -81 125
18:01:15.151626 595.54 1512 3276 14020 -1504 -81 133
18:01:15.158753 595.55 1424 3288 13988 -1448 -14 109
18:01:15.177981 595.56 1504 3200 14132 -1402 -23 129
18:01:15.181009 595.57 1436 3132 14012 -1321 7 95
18:01:15.209120 595.58 1412 3128 14080 -1352 64 56
18:01:15.210718 595.59 1388 3172 13992 -1273 -47 64
18:01:15.211353 595.6 1536 3104 14148 -1371 -4 65
18:01:15.218434 595.61 1508 3080 14176 -1334 -15 88
18:01:15.241787 595.62 1460 2980 14200 -1297 -10 77
18:01:15.271436 595.63 1520 2992 14200 -1178 -27 91
18:01:15.276547 595.64 1520 2928 13960 -1165 -26 69
18:01:15.276640 595.65 1552 2944 14144 -1177 18 46
18:01:15.276947 595.66 1616 2952 14048 -1185 58 70
18:01:15.279441 595.67 1628 2932 14240 -1185 12 51
18:01:15.286025 595.68 1492 2952 14224 -1186 89 47
18:01:15.300854 595.69 1572 2940 14160 -1192 67 21
18:01:15.318218 595.7 1584 2848 14232 -1185 102 21
18:01:15.320372 595.71 1600 2932 14132 -1187 109 19
18:01:15.323633 595.72 1572 2820 14316 -1263 85 41
18:01:15.344180 595.73 1528 2816 14168 -1281 50 50
18:01:15.346028 595.74 1484 2688 13884 -1398 -50 68
18:01:15.372107 595.75 1540 2744 14032 -1482 -105 70
18:01:15.380005 595.76 1564 2564 14060 -1269 -89 67
18:01:15.381922 595.77 1608 2588 14256 -985 108 35
18:01:15.384282 595.78 1616 2648 14208 -761 156 32
18:01:15.404318 595.79 1664 2748 14220 -889 132 11
18:01:15.423785 595.8 1624 2612 14232 -1032 94 66
18:01:15.447898 595.81 1500 2576 13968 -1006 -26 46
18:01:15.448155 595.82 1576 2504 14172 -865 39 44
18:01:15.468013 595.83 1600 2680 14328 -874 227 39
18:01:15.478764 595.84 1388 2612 13808 -1814 130 101
18:01:15.479068 595.85 1688 2468 13836 -1980 -133 112
18:01:15.483171 595.86 1796 2400 14668 -280 320 -120
18:01:15.485085 595.87 1452 2592 13832 -803 -373 46
18:01:15.489135 595.88 1788 2312 13932 -1398 -290 98
18:01:15.503671 595.89 1704 2260 14228 -692 330 -19
18:01:15.520600 595.9 1504 2488 13700 -1557 -367 156
18:01:15.522224 595.91 1668 2256 14052 -1321 -99 108
18:01:15.539049 595.92 1784 2356 14208 -485 313 -29
18:01:15.548096 595.93 1672 2560 14684 -350 328 -48
18:01:15.571456 595.94 1592 2604 14588 -687 203 -21
18:01:15.579904 595.95 1624 2652 14464 -965 216 -2
18:01:15.580108 595.96 1512 2456 14396 -1194 246 54
18:01:15.599949 595.97 1480 2352 14256 -1351 31 89
18:01:15.615058 595.98 1616 2248 14172 -1417 81 43
18:01:15.615438 595.99 1672 2180 14120 -1479 81 46
18:01:15.616508 596.0 1584 2116 13960 -1363 50 74
18:01:15.640868 596.01 1688 2044 13956 -1015 40 64
18:01:15.647714 596.02 1708 1996 14104 -582 43 66
18:01:15.653422 596.03 1688 2068 14320 -311 115 40
18:01:15.661108 596.04 1656 2064 14316 -74 221 -14
18:01:15.680355 596.05 1704 2196 14392 -117 281 6
18:01:15.680484 596.06 1716 2052 14196 -186 254 -19
18:01:15.691039 596.07 1628 2236 14296 -284 243 18
18:01:15.706566 596.08 1656 2132 14084 -306 218 15
18:01:15.714342 596.09 1660 2132 14212 -310 198 20
18:01:15.720887 596.1 1608 2056 14068 -163 226 43
18:01:15.735942 596.11 1660 1952 13996 -156 217 17
18:01:15.769317 596.12 1724 2172 14136 0 183 56
18:01:15.781196 596.13 1652 2144 14044 188 254 10
18:01:15.781374 596.14 1628 2160 14156 409 367 1
18:01:15.781577 596.15 1532 2228 14260 617 450 -58
18:01:15.846551 596.16 1568 2332 14216 554 397 -52
18:01:15.847471 596.17 1616 2152 14364 806 662 -70
18:01:15.848596 596.18 1464 2312 14016 593 444 2
18:01:15.849844 596.19 1668 2256 13952 354 377 11
18:01:15.850977 596.2 1704 2132 14256 845 482 -43
18:01:15.854982 596.21 1564 2332 14084 944 377 -56
18:01:15.858599 596.22 1588 2324 14216 1113 411 -52
18:01:15.879972 596.23 1588 2484 14244 1112 399 -65
18:01:15.905005 596.24 1508 2388 14176 1045 371 -53
18:01:15.917310 596.25 1636 2500 14156 952 261 -30
18:01:15.924634 596.26 1708 2364 14188 872 323 -46
18:01:15.925654 596.27 1596 2468 14324 949 404 -90
18:01:15.927451 596.28 1572 2428 14176 1076 422 -92
18:01:15.948441 596.29 1648 2384 14228 1164 489 -89
18:01:15.948634 596.3 1620 2572 14148 1253 523 -107
18:01:15.948883 596.31 1540 2476 13964 1203 458 -83
18:01:15.953419 596.32 1708 2608 14284 1192 441 -47
18:01:15.982895 596.33 1500 2496 14112 1207 479 -64
18:01:15.983887 596.34 1540 2656 14184 1347 485 -78
18:01:15.985046 596.35 1572 2612 14096 1292 451 -60
18:01:15.991110 596.36 1468 2612 14080 1199 418 -72
18:01:16.007568 596.37 1472 2632 14060 1311 443 -100
18:01:16.015443 596.38 1472 2748 14100 1480 539 -122
18:01:16.041922 596.39 1496 2804 14220 1569 569 -121
18:01:16.048508 596.4 1512 2884 14172 1453 507 -77
18:01:16.048612 596.41 1424 2808 14132 1337 461 -48
18:01:16.050870 596.42 1568 2844 14064 1328 471 -83
18:01:16.058791 596.43 1428 3000 14136 1299 465 -43
18:01:16.073844 596.44 1528 3044 14092 1287 470 -57
18:01:16.104206 596.45 1352 3016 14180 1216 467 -50
18:01:16.114545 596.46 1396 3120 14160 1258 494 -63
18:01:16.114660 596.47 1448 3136 14068 1112 462 -95
18:01:16.114813 596.48 1448 3116 13936 1054 401 -59
18:01:16.118332 596.49 1448 3132 14112 1110 402 -63
18:01:16.138555 596.5 1356 3128 14036 1114 423 -56
18:01:16.150752 596.51 1476 3156 14064 1130 448 -81
18:01:16.152496 596.52 1584 3120 14040 1096 420 -69
18:01:16.156021 596.53 1364 3264 14060 1219 350 -84
18:01:16.201771 596.54 1388 3172 14236 1057 321 -99
18:01:16.217401 596.55 1440 3220 13944 915 564 -113
18:01:16.217529 596.56 1388 3240 14080 817 410 -98
18:01:16.217614 596.57 1516 3300 14160 1056 442 -145
18:01:16.217694 596.58 1468 3344 14100 983 392 -114
18:01:16.261827 596.59 1456 3300 14068 986 487 -143
18:01:16.282681 596.6 1376 3288 14148 905 373 -89
18:01:16.282811 596.61 1448 3380 13872 742 348 -60
18:01:16.282982 596.62 1428 3348 14064 579 295 -20
18:01:16.283182 596.63 1380 3336 13972 555 269 -13
18:01:16.283374 596.64 1388 3372 14112 751 336 -54
18:01:16.293293 596.65 1460 3512 14188 1101 512 -130
18:01:16.294878 596.66 1412 3480 14064 1111 540 -96
18:01:16.313854 596.67 1340 3540 14152 886 439 -110
18:01:16.343018 596.68 1332 3512 14036 701 422 -80
18:01:16.352636 596.69 1312 3576 14060 779 350 -86
18:01:16.356552 596.7 1208 3572 14136 833 310 -22
18:01:16.357647 596.71 1224 3684 13832 257 282 76
18:01:16.359060 596.72 1332 3684 13512 -160 75 68
18:01:16.382582 596.73 1648 3576 14200 1034 622 -115
18:01:16.397272 596.74 1424 3800 14232 1656 515 -154
18:01:16.397383 596.75 1300 3840 13884 481 -7 14
18:01:16.416816 596.76 1404 3732 14092 375 392 -46
18:01:16.426346 596.77 1348 3692 13672 74 220 31
18:01:16.426587 596.78 1312 3688 13476 -286 35 105
18:01:16.426746 596.79 1452 3540 13720 270 286 40
18:01:16.433444 596.8 1364 3612 13956 796 222 -60
18:01:16.458621 596.81 1376 3752 14168 960 92 -79
18:01:16.477035 596.82 1432 3876 14304 899 72 -73
18:01:16.487897 596.83 1304 3892 14108 686 159 -40
18:01:16.488281 596.84 1228 3776 14224 567 199 -27
18:01:16.488589 596.85 1464 3856 14052 488 221 -15
18:01:16.510826 596.86 1404 3956 13984 390 332 -49
18:01:16.518039 596.87 1236 3800 13524 787 86 -18
18:01:16.546707 596.88 1344 3980 14092 750 -41 -64
18:01:16.588750 596.89 1388 3964 13816 243 679 -79
18:01:16.599274 596.9 1320 3668 13772 342 269 -71
18:01:16.599790 596.91 1376 3824 13892 981 214 -40
18:01:16.600257 596.92 1444 3880 13932 623 307 -80
18:01:16.600655 596.93 1424 3888 14052 694 203 -57
18:01:16.600955 596.94 1436 3948 14012 782 374 -70
18:01:16.601203 596.95 1332 3972 13836 522 352 -68
18:01:16.601527 596.96 1420 3924 14020 628 404 -87
18:01:16.606074 596.97 1296 4116 13848 570 444 -49
18:01:16.630803 596.98 1396 4008 13980 489 342 -86
18:01:16.632121 596.99 1436 4000 13820 440 392 -95
18:01:16.674100 597.0 1372 4092 13848 412 336 -78
18:01:16.698905 597.01 1268 4156 13852 353 369 -63
18:01:16.710386 597.02 1412 4088 13912 379 381 -70
18:01:16.710989 597.03 1344 4124 13872 380 441 -38
18:01:16.711372 597.04 1220 4264 14140 462 404 -80
18:01:16.711750 597.05 1292 4224 14040 355 300 -83
18:01:16.768956 597.06 1228 4332 14280 310 746 -108
18:01:16.770063 597.07 1256 4304 13720 -581 309 -2
18:01:16.815341 597.08 1196 4156 13748 -817 273 47
18:01:16.823801 597.09 1368 4040 13976 -606 251 13
18:01:16.823900 597.1 1224 4004 13872 -839 153 52
18:01:16.841926 597.11 1324 4056 13744 -1121 -67 137
18:01:16.852486 597.12 1372 4064 13712 -1212 -106 165
18:01:16.852641 597.13 1280 3944 13916 -824 -74 132
18:01:16.852717 597.14 1308 4020 13900 -555 -39 121
18:01:16.853061 597.15 1304 4032 14024 -600 25 89
18:01:16.853368 597.16 1372 3964 14016 -543 61 64
18:01:16.882029 597.17 1364 3996 13768 -431 96 42
18:01:16.884994 597.18 1456 3956 13896 -425 140 41
18:01:16.885862 597.19 1368 3992 13788 -430 169 42
18:01:16.888143 597.2 1508 3860 14008 -346 214 35
18:01:16.914607 597.21 1328 3912 13928 -282 197 8
18:01:16.914771 597.22 1320 3832 14028 -216 240 -3
18:01:16.915503 597.23 1232 3952 13836 -335 207 49
18:01:16.916051 597.24 1228 3888 13768 -294 216 10
18:01:16.916525 597.25 1364 3984 13868 -123 281 0
18:01:16.934207 597.26 1332 3904 13960 -14 288 -33
18:01:16.946294 597.27 1276 3980 13852 17 265 -50
18:01:16.946460 597.28 1292 3932 13828 13 264 -7
18:01:16.946535 597.29 1388 3976 14068 25 289 -26
18:01:16.967322 597.3 1412 3896 14016 44 276 -15
18:01:16.982410 597.31 1340 3968 13960 114 298 -25
18:01:17.005027 597.32 1260 3960 13824 228 320 -32
18:01:17.005211 597.33 1312 3964 13940 180 319 -42
18:01:17.005669 597.34 1324 4012 13944 264 348 -35
18:01:17.007243 597.35 1228 4024 13812 283 331 -78
18:01:17.028501 597.36 1292 3960 13888 331 384 -62
18:01:17.035824 597.37 1268 3948 13972 305 400 -95
18:01:17.040887 597.38 1284 4096 13996 152 314 -59
18:01:17.069869 597.39 1248 3992 13908 157 303 -44
18:01:17.077513 597.4 1284 4032 13900 103 285 -53
18:01:17.077655 597.41 1392 4028 13880 101 269 -7
18:01:17.109874 597.42 1352 3936 13868 143 293 -24
18:01:17.110946 597.43 1344 4048 13836 144 281 -100
18:01:17.113705 597.44 1236 4004 13960 208 329 -88
18:01:17.114762 597.45 1344 4056 14088 233 308 -63
18:01:17.138422 597.46 1344 4088 13948 35 279 -63
18:01:17.138635 597.47 1428 4076 13812 -95 254 -57
18:01:17.138789 597.48 1336 3992 13732 -194 110 -32
18:01:17.163077 597.49 1308 3940 13980 -124 258 -23
18:01:17.173250 597.5 1348 4048 13944 123 345 -38
18:01:17.184637 597.51 1236 4180 13984 186 393 -102
18:01:17.212259 597.52 1160 4120 13964 150 307 -100
18:01:17.214259 597.53 1172 4204 13728 41 273 -75
18:01:17.236342 597.54 1216 4136 13780 -112 242 -32
18:01:17.246471 597.55 1232 4100 14060 -113 126 -6
18:01:17.246831 597.56 1300 4236 13960 -409 175 116
18:01:17.250015 597.57 1224 4148 13368 -1142 -98 182
18:01:17.251772 597.58 1500 3972 14144 -323 366 18
18:01:17.274372 597.59 1312 4188 14416 255 474 -87
18:01:17.274748 597.6 1192 4028 13980 -511 4 30
18:01:17.275398 597.61 1324 3972 13996 -882 64 90
18:01:17.281552 597.62 1272 4080 13848 -1023 234 123
18:01:17.304949 597.63 1220 3912 13620 -1545 -35 207
18:01:17.352500 597.64 1432 3684 13480 -1324 -3 215
18:01:17.358505 597.65 1412 3864 14012 -866 69 154
18:01:17.358649 597.66 1388 3904 14288 -688 -46 116
18:01:17.358896 597.67 1180 4056 13996 -982 41 180
18:01:17.359059 597.68 1196 4088 13684 -1668 -497 276
18:01:17.365530 597.69 1244 3964 13960 -1053 -205 233
18:01:17.367179 597.7 1284 4036 14268 -1411 47 208
18:01:17.392241 597.71 1060 4180 14260 -1051 322 83
18:01:17.444701 597.72 1252 4104 14296 -1278 34 75
18:01:17.454220 597.73 1364 3816 14144 -2132 133 168
18:01:17.454396 597.74 1312 3752 13812 -2590 -52 246
18:01:17.454515 597.75 1452 3632 13804 -2730 -203 313
18:01:17.454628 597.76 1376 3436 13868 -2741 -209 303
18:01:17.454739 597.77 1420 3300 14020 -2448 -193 269
18:01:17.462974 597.78 1396 3348 13948 -2271 -130 267
18:01:17.464699 597.79 1340 3384 13996 -2091 -105 228
18:01:17.487358 597.8 1328 3384 14080 -1756 -42 140
18:01:17.495205 597.81 1496 3420 14080 -1510 50 94
18:01:17.500645 597.82 1420 3228 14008 -1424 90 94
18:01:17.528447 597.83 1464 3304 14044 -1370 94 87
18:01:17.528575 597.84 1452 3364 14044 -1374 175 67
18:01:17.528668 597.85 1560 3308 14024 -1416 115 87
18:01:17.567447 597.86 1460 3228 14184 -1526 183 72
18:01:17.588249 597.87 1328 3288 14120 -1452 217 87
18:01:17.588362 597.88 1300 3248 14172 -1463 210 62
18:01:17.588432 597.89 1440 3276 14128 -1469 218 53
18:01:17.588497 597.9 1376 3116 14152 -1389 143 39
18:01:17.598193 597.91 1356 3044 14148 -1234 339 34
18:01:17.600175 597.92 1316 3096 13944 -1650 3 112
18:01:17.650975 597.93 1424 3016 13860 -1813 -11 112
18:01:17.655639 597.94 1420 2920 14072 -1080 86 12
18:01:17.655970 597.95 1472 3032 14180 -874 -26 18
18:01:17.656281 597.96 1512 3008 14116 -1192 -52 45
18:01:17.657229 597.97 1416 2944 14320 -1289 8 38
18:01:17.665585 597.98 1316 2876 14168 -1269 -6 73
18:01:17.667547 597.99 1448 2896 14188 -1286 46 30
18:01:17.678729 598.0 1404 2944 14304 -1284 72 -4
18:01:17.709861 598.01 1536 2856 14280 -1364 109 -6
18:01:17.726493 598.02 1540 2880 14172 -1347 83 -25
18:01:17.726809 598.03 1504 2740 14152 -1244 72 -22
18:01:17.731298 598.04 1540 2724 14264 -1288 98 11
18:01:17.782023 598.05 1500 2720 14316 -1325 129 13
18:01:17.789887 598.06 1500 2676 14168 -1400 121 -4
18:01:17.790124 598.07 1440 2592 14100 -1450 70 18
18:01:17.790387 598.08 1512 2656 14268 -1439 25 25
18:01:17.790547 598.09 1500 2484 14164 -1400 50 17
18:01:17.790706 598.1 1508 2580 14100 -1379 14 5
18:01:17.790895 598.11 1572 2404 14208 -1331 -1 10
18:01:17.798425 598.12 1572 2544 14112 -1243 51 11
18:01:17.827250 598.13 1432 2480 14176 -1159 8 -4
18:01:17.828333 598.14 1548 2504 14260 -1242 58 30
18:01:17.829578 598.15 1604 2460 14180 -1379 11 39
18:01:17.835801 598.16 1488 2460 14216 -1403 58 34
18:01:17.860234 598.17 1564 2508 14220 -1331 71 10
18:01:17.860504 598.18 1532 2384 14420 -1279 54 0
18:01:17.886737 598.19 1572 2432 14228 -1208 109 -31
18:01:17.890961 598.2 1508 2432 14340 -1216 94 0
18:01:17.891330 598.21 1520 2432 14244 -1336 53 25
18:01:17.896499 598.22 1540 2224 14152 -1460 -48 39
18:01:17.920470 598.23 1452 2188 14176 -1412 -135 37
18:01:17.926288 598.24 1628 2120 14200 -1100 -15 10
18:01:17.933969 598.25 1524 2216 14464 -747 185 -5
18:01:17.950925 598.26 1576 2316 14420 -858 229 -1
18:01:17.959635 598.27 1404 2216 14080 -1040 159 -55
18:01:17.959911 598.28 1460 2168 14044 -1157 12 -15
18:01:17.984020 598.29 1552 2036 14172 -1121 -58 28
18:01:17.994072 598.3 1636 2012 14360 -942 -100 24
18:01:17.994307 598.31 1624 2120 14432 -983 128 58
18:01:18.001162 598.32 1472 2092 13696 -1876 -140 54
18:01:18.016007 598.33 1708 1820 14060 -1354 -83 -10
18:01:18.031963 598.34 1732 2008 14716 3 439 -156
18:01:18.044349 598.35 1420 2188 14172 -878 -282 -19
18:01:18.063582 598.36 1652 1948 13940 -1411 -376 21
18:01:18.063895 598.37 1692 1948 14352 -501 351 -70
18:01:18.080601 598.38 1464 1904 13772 -1132 -248 19
18:01:18.092855 598.39 1616 1708 13904 -1182 -198 101
18:01:18.093011 598.4 1744 1752 14280 -252 231 1
18:01:18.098471 598.41 1640 2008 14668 103 310 -29
18:01:18.118765 598.42 1520 1940 14392 74 194 6
18:01:18.127225 598.43 1588 2032 14344 -24 262 28
18:01:18.128357 598.44 1540 1924 14248 -15 229 62
18:01:18.135892 598.45 1628 2004 14184 -12 189 104
18:01:18.153176 598.46 1676 1968 14232 75 275 58
18:01:18.160646 598.47 1712 1968 14036 165 282 99
18:01:18.180608 598.48 1624 1848 13952 314 307 81
18:01:18.195601 598.49 1648 1840 13924 510 287 57
18:01:18.198131 598.5 1604 1956 14088 855 354 3
18:01:18.199671 598.51 1716 1988 14196 1088 403 3
18:01:18.214896 598.52 1564 1920 14380 1101 455 -17
18:01:18.228631 598.53 1672 1968 14548 998 493 -40
18:01:18.233327 598.54 1636 2132 14436 923 568 -60
18:01:18.249776 598.55 1676 2052 14320 702 458 -42
18:01:18.259993 598.56 1676 2044 14276 588 360 3
18:01:18.263365 598.57 1616 2140 14212 632 362 -30
18:01:18.271001 598.58 1672 2160 14184 571 337 -33
18:01:18.285934 598.59 1612 2108 14144 574 267 33
18:01:18.293952 598.6 1664 2164 14112 691 265 18
18:01:18.301015 598.61 1552 2164 14124 933 327 16
18:01:18.318838 598.62 1632 2296 14316 1210 414 -11
18:01:18.332849 598.63 1496 2360 14404 1370 533 -45
18:01:18.333961 598.64 1572 2256 14472 1216 453 -46
18:01:18.356839 598.65 1408 2304 14304 1255 790 -75
18:01:18.365679 598.66 1544 2388 14024 746 389 5
18:01:18.365852 598.67 1660 2268 13968 636 389 10
18:01:18.381135 598.68 1540 2376 14112 960 298 -33
18:01:18.396584 598.69 1536 2432 14368 1247 455 -69
18:01:18.398453 598.7 1460 2432 14232 1139 435 -70
18:01:18.417593 598.71 1404 2504 14124 992 352 -3
18:01:18.427706 598.72 1492 2484 14216 1050 330 -7
18:01:18.428325 598.73 1516 2496 14200 1059 347 -26
18:01:18.436026 598.74 1604 2628 14232 1043 465 -41
18:01:18.455443 598.75 1408 2572 14168 1045 443 -53
18:01:18.463014 598.76 1408 2604 14288 1104 413 -101
18:01:18.486762 598.77 1532 2660 14304 1221 488 -57
18:01:18.495120 598.78 1464 2676 14240 1146 528 -59
18:01:18.495910 598.79 1376 2656 14128 1021 524 -51
18:01:18.516227 598.8 1520 2644 14176 1005 459 -69
18:01:18.529366 598.81 1456 2732 14232 1052 454 -65
18:01:18.535315 598.82 1412 2772 14260 1021 451 -28
18:01:18.536676 598.83 1520 2860 14128 962 459 -48
18:01:18.548742 598.84 1528 2804 14024 950 465 -38
18:01:18.560554 598.85 1320 2824 14160 934 447 -71
18:01:18.571114 598.86 1476 2808 14008 929 407 -61
18:01:18.595526 598.87 1452 2852 14044 932 378 -46
18:01:18.597279 598.88 1480 2956 14196 889 385 -54
18:01:18.600777 598.89 1388 2952 14104 978 422 -31
18:01:18.615273 598.9 1476 2936 14104 900 422 -29
18:01:18.628967 598.91 1384 2964 14160 1021 415 -50
18:01:18.630943 598.92 1452 3000 14032 1084 398 -72
18:01:18.638680 598.93 1440 3028 14136 1173 467 -94
18:01:18.653715 598.94 1452 3116 13940 1046 561 -76
18:01:18.707157 598.95 1404 3112 13976 933 443 -51
18:01:18.714971 598.96 1452 3096 13992 937 394 -53
18:01:18.715092 598.97 1324 3116 14256 1059 400 -84
18:01:18.715186 598.98 1508 3192 14364 1323 524 -84
18:01:18.715352 598.99 1272 3276 14236 1238 581 -89
18:01:18.715550 599.0 1364 3288 14124 1024 464 -86
18:01:18.735850 599.01 1244 3240 14004 886 468 -50
18:01:18.744552 599.02 1380 3272 13972 821 340 -10
18:01:18.753033 599.03 1396 3368 14060 1007 360 -86
18:01:18.755331 599.04 1356 3368 14300 1093 303 -29
18:01:18.768692 599.05 1164 3600 13836 186 138 106
18:01:18.777539 599.06 1456 3220 13872 334 308 -31
18:01:18.788446 599.07 1472 3260 14384 1632 675 -170
18:01:18.812125 599.08 1332 3588 14168 1614 460 -106
18:01:18.843175 599.09 1376 3604 14208 691 148 -51
18:01:18.848457 599.1 1388 3420 14252 690 584 -60
18:01:18.848555 599.11 1168 3348 13416 -237 91 72
18:01:18.848626 599.12 1464 3188 13512 -124 186 87
18:01:18.848897 599.13 1368 3344 13676 560 234 8
18:01:18.873313 599.14 1268 3416 14132 1007 142 -59
18:01:18.884183 599.15 1340 3636 14312 1136 91 -54
18:01:18.888267 599.16 1224 3600 14284 822 156 -11
18:01:18.890201 599.17 1200 3584 14232 615 232 6
18:01:18.903101 599.18 1268 3640 14204 579 235 -13
18:01:18.913656 599.19 1232 3700 14168 610 276 5
18:01:18.935835 599.2 1376 3668 13968 593 360 -35
18:01:18.946333 599.21 1368 3732 13952 621 373 -67
18:01:18.948625 599.22 1416 3700 13836 574 348 -61
18:01:18.950921 599.23 1284 3584 13912 737 342 -56
18:01:18.973801 599.24 1328 3768 14032 894 384 -55
18:01:18.982188 599.25 1364 3652 13960 941 297 -64
18:01:19.006271 599.26 1392 3728 14124 886 314 -59
18:01:19.014333 599.27 1376 3780 13944 744 308 -30
18:01:19.014484 599.28 1364 3656 13988 766 374 -53
18:01:19.014607 599.29 1296 3732 13980 737 343 -35
18:01:19.036675 599.3 1208 3792 14048 698 341 -46
18:01:19.047773 599.31 1356 3836 14092 627 330 -56
18:01:19.052786 599.32 1324 3768 13804 536 290 -77
18:01:19.054039 599.33 1252 3940 13924 550 338 -88
18:01:19.067467 599.34 1236 3852 13980 622 364 -55
18:01:19.113431 599.35 1340 3860 13916 672 356 -52
18:01:19.116012 599.36 1236 3892 13976 738 377 -62
18:01:19.116912 599.37 1324 4024 13968 867 404 -95
18:01:19.117892 599.38 1244 3904 13980 831 413 -132
18:01:19.128272 599.39 1284 3912 14236 857 701 -125
18:01:19.147673 599.4 1168 4024 13536 434 268 -15
18:01:19.147868 599.41 1284 3844 13692 397 441 -64
18:01:19.151233 599.42 1244 3936 13836 873 433 -94
18:01:19.153855 599.43 1192 4088 14108 772 387 -97
18:01:19.174351 599.44 1204 4084 13916 561 320 -37
18:01:19.182745 599.45 1192 4124 13860 404 318 -54
18:01:19.185692 599.46 1264 4176 13928 398 278 -9
18:01:19.203137 599.47 1212 4128 14048 485 247 -52
18:01:19.218023 599.48 1200 4104 13936 472 218 -34
18:01:19.225677 599.49 1216 4140 13840 371 284 -60
18:01:19.226746 599.5 1276 4196 14092 372 351 -72
18:01:19.269721 599.51 1248 4284 14048 386 339 -57
18:01:19.280449 599.52 1192 4288 13912 342 347 -59
18:01:19.280682 599.53 1172 4188 13804 342 306 -46
18:01:19.280931 599.54 1204 4092 13908 289 333 -57
18:01:19.285403 599.55 1148 4184 13940 344 315 -47
18:01:19.287132 599.56 1252 4196 13952 392 375 -56
18:01:19.334797 599.57 1276 4132 13764 315 333 -50
18:01:19.349872 599.58 1124 4184 13788 251 318 -49
18:01:19.350015 599.59 1220 4212 13876 210 309 -54
18:01:19.350188 599.6 1188 4160 13712 246 327 -52
18:01:19.350370 599.61 1208 4224 13852 239 361 -34
18:01:19.360933 599.62 1160 4228 13868 199 370 -26
18:01:19.384650 599.63 1212 4372 13796 153 348 -35
18:01:19.405893 599.64 1188 4244 13824 137 326 -27
18:01:19.415975 599.65 1184 4276 13908 101 307 -14
18:01:19.454792 599.66 1204 4260 13820 48 328 -23
18:01:19.455943 599.67 1164 4260 13836 34 325 -26
18:01:19.457170 599.68 1252 4332 13748 48 320 -32
18:01:19.458637 599.69 1172 4304 13828 16 312 -8
18:01:19.461407 599.7 1156 4356 13972 12 291 -39
18:01:19.476134 599.71 1180 4444 13900 -8 325 -2
18:01:19.484501 599.72 1120 4272 13952 -3 306 -11
18:01:19.484604 599.73 1252 4344 13860 -32 309 2
18:01:19.536061 599.74 1120 4336 13828 -98 273 -12
18:01:19.550068 599.75 1212 4324 13800 -130 255 -2
18:01:19.550330 599.76 1132 4312 13748 -151 282 18
18:01:19.550524 599.77 1136 4184 13960 -129 286 -23
18:01:19.551857 599.78 1028 4304 13848 -146 289 -15
18:01:19.552910 599.79 1224 4324 13788 -171 285 -19
18:01:19.554092 599.8 1148 4228 13900 -245 279 -8
18:01:19.555213 599.81 1196 4440 13780 -323 222 0
18:01:19.562189 599.82 1152 4404 13976 -313 294 -19
18:01:19.593092 599.83 1192 4344 13772 -370 216 -4
18:01:19.593287 599.84 1192 4276 13944 -429 294 -16
18:01:19.648791 599.85 952 4336 13988 -559 218 18
18:01:19.649703 599.86 1160 4124 13784 -677 216 31
18:01:19.669051 599.87 1172 4244 13960 -643 186 35
18:01:19.671337 599.88 1124 4328 13988 -713 178 36
18:01:19.672592 599.89 1128 4228 13800 -761 189 49
18:01:19.673578 599.9 1160 4168 13948 -874 198 85
18:01:19.674778 599.91 1172 4220 14004 -1012 164 80
18:01:19.713446 599.92 1100 4304 13992 -1075 110 74
18:01:19.728613 599.93 1152 4192 13828 -1165 156 73
18:01:19.739847 599.94 1216 4292 13868 -1228 156 106
18:01:19.748970 599.95 1192 4188 14132 -1295 152 134
18:01:19.749166 599.96 1236 4176 14064 -1378 120 129
18:01:19.749307 599.97 1124 4036 13960 -1476 79 139
18:01:19.749620 599.98 1132 4012 14004 -1561 14 159
18:01:19.749941 599.99 1216 3944 14080 -1473 30 157
18:01:19.763890 600.0 1180 3928 13828 -1539 106 124
18:01:19.772952 600.01 1176 4008 14004 -1530 111 151
18:01:19.787709 600.02 1172 3832 13984 -1568 145 121
18:01:19.811171 600.03 1100 3852 13988 -1634 141 164
18:01:19.811307 600.04 1120 3804 14136 -1655 113 127
18:01:19.811378 600.05 1068 3832 13884 -1591 80 118
18:01:19.811444 600.06 1288 3804 13928 -1574 146 111
18:01:19.859864 600.07 1252 3728 14076 -1664 129 124
18:01:19.870720 600.08 1156 3764 14052 -1746 145 111
18:01:19.870922 600.09 1084 3644 13996 -1934 32 170
18:01:19.871587 600.1 1220 3548 13896 -2087 -57 157
18:01:19.872066 600.11 1152 3556 13872 -1921 -35 152
18:01:19.872558 600.12 1336 3524 14208 -1580 63 85
18:01:19.891501 600.13 1144 3572 14248 -1497 100 116
18:01:19.901378 600.14 1144 3616 14240 -1460 107 101
18:01:19.901927 600.15 1232 3460 13956 -1599 -26 83
18:01:19.902378 600.16 1148 3408 13964 -1662 -116 138
18:01:19.913750 600.17 1296 3400 14148 -1534 -70 105
18:01:19.938491 600.18 1124 3384 14052 -1876 112 190
18:01:19.945716 600.19 1308 3384 13392 -2979 -249 271
18:01:19.971672 600.2 1520 3168 14176 -2274 -165 104
18:01:19.983022 600.21 1372 3200 14660 -672 66 -33
18:01:19.983202 600.22 1232 3204 13852 -1568 -418 176
18:01:19.983705 600.23 1344 3060 13980 -1948 -214 131
18:01:19.999492 600.24 1132 3012 13768 -1698 -44 146
18:01:20.009525 600.25 1364 2944 13676 -2114 -533 228
18:01:20.012339 600.26 1448 2912 14236 -1275 -107 106
18:01:20.056870 600.27 1320 3140 14476 -713 21 42
18:01:20.068895 600.28 1288 3200 14528 -1164 -114 89
18:01:20.069250 600.29 1232 3156 14260 -1579 -44 100
18:01:20.069645 600.3 1264 3032 14224 -1710 -35 149
18:01:20.069930 600.31 1292 3100 14232 -1790 -42 98
18:01:20.085199 600.32 1372 2908 14188 -1738 38 81
18:01:20.098760 600.33 1340 2880 14072 -1810 -2 75
18:01:20.099423 600.34 1312 2736 13888 -1943 -30 103
18:01:20.101508 600.35 1312 2644 13840 -1866 5 80
18:01:20.118351 600.36 1272 2544 13932 -1566 -160 76
18:01:20.127087 600.37 1444 2540 13840 -1255 -139 40
18:01:20.141170 600.38 1464 2624 14444 -819 -26 35
18:01:20.148991 600.39 1416 2664 14352 -758 33 14
18:01:20.156550 600.4 1432 2564 14408 -962 28 42
18:01:20.176216 600.41 1532 2576 14232 -1006 77 8
18:01:20.178701 600.42 1392 2604 14196 -1060 60 -2
18:01:20.180055 600.43 1416 2636 14164 -1201 85 15
18:01:20.194143 600.44 1432 2576 14236 -1259 36 26
18:01:20.223337 600.45 1452 2480 14132 -1271 4 51
18:01:20.236713 600.46 1452 2436 14164 -1319 41 -11
18:01:20.236894 600.47 1472 2528 14268 -1258 32 -8
18:01:20.238155 600.48 1348 2552 14216 -1274 35 33
18:01:20.239517 600.49 1440 2448 14228 -1126 90 0
18:01:20.279680 600.5 1356 2496 14264 -988 79 12
18:01:20.280739 600.51 1312 2452 14184 -982 53 -24
18:01:20.282402 600.52 1436 2420 14296 -821 212 -32
18:01:20.307288 600.53 1388 2412 14264 -904 153 39
18:01:20.307600 600.54 1404 2436 14060 -1172 45 77
18:01:20.307866 600.55 1552 2300 14208 -919 196 5
18:01:20.363246 600.56 1384 2428 14148 -919 -56 -8
18:01:20.370941 600.57 1568 2332 14256 -869 47 -33
18:01:20.371122 600.58 1480 2240 14312 -856 14 -16
18:01:20.371261 600.59 1440 2252 14344 -945 64 -27
18:01:20.371388 600.6 1468 2312 14140 -1052 -12 12
18:01:20.374792 600.61 1412 2188 14156 -1122 -38 4
18:01:20.376796 600.62 1488 2220 14328 -1034 27 -13
18:01:20.397862 600.63 1488 2152 14284 -903 33 -31
18:01:20.407449 600.64 1568 2056 14224 -817 88 -13
18:01:20.408267 600.65 1560 2104 14312 -762 86 -32
18:01:20.431804 600.66 1484 2108 14172 -763 154 -26
18:01:20.439919 600.67 1584 2020 14248 -755 149 -19
18:01:20.447005 600.68 1472 2128 14152 -758 86 1
18:01:20.459408 600.69 1476 2004 14184 -506 116 -1
18:01:20.472610 600.7 1484 2036 14248 -354 123 -16
18:01:20.478197 600.71 1480 1920 14064 -274 107 -1
18:01:20.480763 600.72 1428 2080 14144 -181 189 -3
18:01:20.500745 600.73 1484 1984 14196 10 286 28
18:01:20.504832 600.74 1512 1976 14200 141 271 -15
18:01:20.505635 600.75 1484 2080 14160 222 233 -15
18:01:20.538411 600.76 1524 2124 14164 334 311 1
18:01:20.540351 600.77 1600 2068 14244 406 314 9
18:01:20.543392 600.78 1440 2136 14132 474 359 20
18:01:20.563880 600.79 1584 2204 14208 441 358 34
18:01:20.572044 600.8 1412 2160 14152 511 342 -2
18:01:20.572141 600.81 1520 2228 14232 607 394 15
18:01:20.596554 600.82 1452 2284 14216 661 415 -53
18:01:20.627037 600.83 1460 2212 14248 628 382 -67
18:01:20.638556 600.84 1388 2180 14248 604 382 -34
18:01:20.639103 600.85 1508 2296 14220 621 357 -10
18:01:20.640353 600.86 1452 2240 14104 626 352 -40
18:01:20.641475 600.87 1516 2228 14108 650 348 -12
18:01:20.650062 600.88 1536 2260 14108 735 418 -48
18:01:20.670983 600.89 1520 2304 14116 690 346 -32
18:01:20.671156 600.9 1524 2436 14196 742 366 -21
18:01:20.671292 600.91 1464 2456 14308 847 419 -31
18:01:20.678720 600.92 1476 2260 14256 848 363 -43
18:01:20.698919 600.93 1376 2448 14072 816 375 -34
18:01:20.710283 600.94 1548 2292 14152 835 352 -17
18:01:20.711527 600.95 1480 2312 14084 883 365 -53
18:01:20.716433 600.96 1540 2500 14240 929 392 -43
18:01:20.732186 600.97 1440 2456 14196 1004 420 -29
18:01:20.759204 600.98 1460 2384 14152 983 381 -19
18:01:20.775660 600.99 1380 2468 14228 1022 454 -26
18:01:20.776026 601.0 1408 2548 14232 1070 394 -20
18:01:20.776295 601.01 1388 2584 14232 1028 464 -60
18:01:20.793122 601.02 1408 2492 14032 901 337 -15
18:01:20.805539 601.03 1436 2564 14056 939 320 -14
18:01:20.815698 601.04 1428 2676 14308 1309 408 -42
18:01:20.816723 601.05 1344 2704 14132 1527 555 -93
18:01:20.832123 601.06 1424 2784 14348 1528 553 -51
18:01:20.839520 601.07 1364 2852 14384 1420 567 -54
18:01:20.865988 601.08 1252 2832 14236 1314 545 -52
18:01:20.873658 601.09 1288 2820 14124 1178 445 -28
18:01:20.875421 601.1 1416 2792 14240 1344 403 -75
18:01:20.877310 601.11 1380 2896 14328 1341 433 -18
18:01:20.881349 601.12 1244 3132 13768 524 462 64
18:01:20.895966 601.13 1544 2848 14180 568 419 -27
18:01:20.912988 601.14 1548 2892 14508 1952 753 -160
18:01:20.914866 601.15 1332 3196 14124 1829 431 -134
18:01:20.928748 601.16 1312 2972 13988 667 76 -14
18:01:20.943342 601.17 1396 2972 14416 1249 732 -125
18:01:20.948739 601.18 1160 3036 13692 561 71 62
18:01:20.973053 601.19 1456 2880 13796 314 82 70
18:01:20.974779 601.2 1356 2936 13996 1106 236 -10
18:01:20.978589 601.21 1380 3076 14392 1639 233 -60
18:01:20.998414 601.22 1368 3284 14400 1524 302 -64
18:01:21.013740 601.23 1400 3372 14364 1192 240 -28
18:01:21.013919 601.24 1220 3380 14320 1037 484 -19
18:01:21.059613 601.25 1248 3432 14000 977 447 -27
18:01:21.077482 601.26 1260 3444 13960 931 392 24
18:01:21.077778 601.27 1276 3356 13940 878 491 -41
18:01:21.078049 601.28 1180 3320 13980 812 461 -16
18:01:21.078928 601.29 1344 3284 13880 825 484 -59
18:01:21.081373 601.3 1400 3320 13856 1055 406 -53
18:01:21.095485 601.31 1308 3268 13980 1280 429 -83
18:01:21.109277 601.32 1316 3368 14044 1237 400 -85
18:01:21.109502 601.33 1488 3532 14040 1201 451 -117
18:01:21.113440 601.34 1232 3436 13972 1118 446 -95
18:01:21.130482 601.35 1496 3504 14184 1153 397 -63
18:01:21.140835 601.36 1276 3452 14036 1075 415 -61
18:01:21.153623 601.37 1200 3636 14008 940 424 -60
18:01:21.173621 601.38 1268 3616 13900 833 316 -82
18:01:21.173841 601.39 1344 3612 13976 789 351 -66
18:01:21.194058 601.4 1336 3640 13932 786 360 -65
18:01:21.211062 601.41 1300 3684 13964 808 405 -69
18:01:21.211212 601.42 1152 3696 13880 879 430 -57
18:01:21.212887 601.43 1244 3652 14068 989 454 -87
18:01:21.214630 601.44 1240 3760 13984 1068 443 -117
18:01:21.232359 601.45 1100 3676 14164 1149 443 -137
18:01:21.250678 601.46 1248 3796 14168 1174 721 -142
18:01:21.251860 601.47 1148 3848 13796 873 473 -54
18:01:21.265490 601.48 1216 3792 13780 544 425 -51
18:01:21.278517 601.49 1204 3724 13824 724 407 -78
18:01:21.297433 601.5 1200 3840 14148 1078 425 -134
18:01:21.307192 601.51 1184 3864 14008 949 351 -113
18:01:21.310393 601.52 1208 3928 13932 693 312 -69
18:01:21.312401 601.53 1140 3896 14036 607 298 -68
18:01:21.316028 601.54 1152 4032 13972 626 288 -78
18:01:21.332682 601.55 1176 4000 13960 552 269 -35
18:01:21.348088 601.56 1128 4036 13888 534 335 -52
18:01:21.349732 601.57 1216 3940 14064 570 327 -57
18:01:21.370985 601.58 1280 4092 13976 630 358 -57
18:01:21.379271 601.59 1268 3984 13972 545 395 -66
18:01:21.379393 601.6 1232 4100 13856 471 377 -45
18:01:21.412118 601.61 1112 4000 13928 441 335 -47
18:01:21.413168 601.62 1284 3936 13980 492 360 -65
18:01:21.413831 601.63 1160 4004 14020 546 372 -28
18:01:21.449306 601.64 1228 4104 13720 477 361 -42
18:01:21.450548 601.65 1172 4044 13812 393 330 -51
18:01:21.451647 601.66 1116 4088 13888 450 395 -77
18:01:21.470886 601.67 1100 4112 13896 496 409 -64
18:01:21.478180 601.68 1200 4096 13808 487 359 -28
18:01:21.483297 601.69 1112 4104 13812 410 394 -59
18:01:21.485334 601.7 1164 4192 13844 355 348 -60
18:01:21.506578 601.71 1160 4124 13848 349 329 -22
18:01:21.537285 601.72 1084 4208 13844 260 340 -28
18:01:21.548841 601.73 1120 4252 13864 253 321 -17
18:01:21.548987 601.74 1172 4184 13892 284 305 -22
18:01:21.550436 601.75 1092 4188 13764 268 319 -28
18:01:21.552238 601.76 1004 4288 13684 312 318 -44
18:01:21.596102 601.77 1176 4284 13884 280 321 -39
18:01:21.609309 601.78 1036 4152 13876 326 360 -45
18:01:21.609509 601.79 1048 4220 13808 287 324 -38
18:01:21.609672 601.8 1076 4340 13752 304 325 -28
18:01:21.609831 601.81 1136 4236 13892 252 347 -41
18:01:21.636779 601.82 1120 4296 13876 255 326 -54
18:01:21.646114 601.83 1136 4236 13908 229 325 -33
18:01:21.652538 601.84 1032 4192 13692 224 323 -36
18:01:21.653707 601.85 1084 4328 13948 194 322 -65
18:01:21.655056 601.86 1084 4336 13796 216 328 -53
18:01:21.699209 601.87 1016 4268 13928 164 330 -57
18:01:21.713183 601.88 1116 4296 13888 210 329 -44
18:01:21.713480 601.89 1048 4416 13812 185 322 -40
18:01:21.713745 601.9 1128 4336 13840 160 318 -57
18:01:21.714000 601.91 1064 4356 13920 152 318 -22
18:01:21.714673 601.92 1016 4296 13760 132 308 -41
18:01:21.721133 601.93 1068 4396 13868 106 273 -7
18:01:21.745788 601.94 1092 4292 13852 126 284 -15
18:01:21.746487 601.95 1112 4340 13664 119 307 -30
18:01:21.801861 601.96 976 4340 14000 91 309 -43
18:01:21.809551 601.97 1028 4356 13852 109 314 -31
18:01:21.809887 601.98 1052 4408 13828 57 316 4
18:01:21.810153 601.99 1144 4348 13904 71 310 -18
18:01:21.810490 602.0 1060 4352 13788 64 331 -37
18:01:21.810864 602.01 992 4380 13708 17 288 -7
18:01:21.818310 602.02 1008 4408 13908 52 318 -62
18:01:21.843927 602.03 1016 4456 13808 52 338 -15
18:01:21.846514 602.04 1072 4372 13756 17 315 -23
18:01:21.869878 602.05 1056 4468 13860 60 338 -40
18:01:21.883571 602.06 1092 4512 14008 -16 312 -25
18:01:21.883709 602.07 1044 4408 13700 -143 284 -9
18:01:21.883797 602.08 1004 4432 13708 -255 233 24
18:01:21.903656 602.09 1004 4472 13724 -194 254 1
18:01:21.923971 602.1 1084 4392 13896 -98 321 -53
18:01:21.924152 602.11 1064 4436 13980 -46 385 -43
18:01:21.924528 602.12 1036 4436 13960 -181 294 -42
18:01:21.940746 602.13 888 4384 13764 -276 257 -15
18:01:21.951867 602.14 996 4348 13708 -371 211 -8
18:01:21.970273 602.15 1072 4336 13740 -268 190 4
18:01:21.984347 602.16 904 4424 14192 -217 139 11
18:01:22.006814 602.17 840 4408 13496 -853 158 142
18:01:22.015018 602.18 1068 4340 13384 -1201 4 143
18:01:22.015121 602.19 1192 4324 14292 -193 379 -42
18:01:22.015201 602.2 864 4600 14068 -78 168 -57
18:01:22.030701 602.21 936 4320 13764 -663 -23 71
18:01:22.039123 602.22 1028 4340 13820 -517 231 58
18:01:22.039293 602.23 1012 4320 13540 -1172 25 175
18:01:22.060501 602.24 1076 4072 13636 -1063 -70 179
18:01:22.061563 602.25 1220 4236 13936 -595 -136 117
18:01:22.086802 602.26 996 4468 14108 -617 -222 67
18:01:22.088525 602.27 1084 4308 14112 -731 -355 119
18:01:22.089351 602.28 1064 4376 14136 -967 -314 177
18:01:22.099514 602.29 912 4388 14016 -1016 -199 162
18:01:22.120436 602.3 1140 4232 13908 -870 -55 167
18:01:22.122172 602.31 1124 4272 13960 -840 -9 133
18:01:22.147059 602.32 1160 4308 13976 -889 111 96
18:01:22.148916 602.33 1000 4188 13840 -1154 122 142
18:01:22.150012 602.34 1140 4124 13696 -1200 89 100
18:01:22.156260 602.35 1084 4048 13864 -1076 112 124
18:01:22.181010 602.36 1168 4076 13804 -1072 160 123
18:01:22.182587 602.37 1212 4016 14032 -1088 135 97
18:01:22.204178 602.38 1120 4076 14080 -1167 128 102
18:01:22.219884 602.39 1108 4012 13976 -1261 135 102
18:01:22.219996 602.4 1072 3912 13868 -1360 100 124
18:01:22.220068 602.41 1020 4004 13900 -1412 137 140
18:01:22.240959 602.42 1116 3872 13844 -1448 116 121
18:01:22.248769 602.43 1192 3824 13980 -1517 96 144
18:01:22.254210 602.44 1104 3868 13932 -1452 105 121
18:01:22.270989 602.45 1192 3816 13968 -1404 92 147
18:01:22.279123 602.46 1164 3836 14016 -1339 139 126
18:01:22.304573 602.47 1176 3888 14044 -1251 167 114
18:01:22.316518 602.48 1192 3828 14040 -1234 217 105
18:01:22.316791 602.49 1104 3816 13924 -1258 226 92
18:01:22.322076 602.5 1100 3924 13956 -1302 180 96
18:01:22.339598 602.51 1124 3700 14184 -1157 285 20
18:01:22.348169 602.52 1004 3688 13964 -1210 328 93
18:01:22.373105 602.53 1108 3732 13920 -1681 55 173
18:01:22.380666 602.54 1288 3484 13972 -1616 97 104
18:01:22.380769 602.55 1084 3532 14024 -1120 109 31
18:01:22.402810 602.56 1176 3616 14148 -1113 13 79
18:01:22.413593 602.57 1140 3576 14088 -1326 -15 110
18:01:22.413777 602.58 1224 3460 13992 -1335 5 102
18:01:22.424338 602.59 1296 3508 14020 -1348 -4 91
18:01:22.425928 602.6 1292 3504 14072 -1430 0 114
18:01:22.452169 602.61 1196 3440 14184 -1535 7 127
18:01:22.452397 602.62 1324 3512 14080 -1488 72 77
18:01:22.452527 602.63 1256 3392 14192 -1550 31 76
18:01:22.456482 602.64 1128 3532 14040 -1627 49 49
18:01:22.478827 602.65 1304 3336 14180 -1598 50 55
18:01:22.488182 602.66 1156 3408 14168 -1621 45 62
18:01:22.490132 602.67 1284 3216 14068 -1530 -8 67
18:01:22.493677 602.68 1272 3280 13988 -1578 -51 89
18:01:22.518145 602.69 1280 3084 14148 -1342 3 71
18:01:22.519513 602.7 1272 3176 14064 -1345 -21 60
18:01:22.544873 602.71 1268 3056 13976 -1369 -73 72
18:01:22.551919 602.72 1300 3100 13976 -1351 -80 84
18:01:22.552094 602.73 1268 2996 14084 -1180 1 47
18:01:22.553944 602.74 1360 2996 14164 -1156 -3 58
18:01:22.578796 602.75 1304 3028 14276 -1255 -21 69
18:01:22.581531 602.76 1212 3056 14232 -1251 35 62
18:01:22.583461 602.77 1192 3060 14116 -1371 -30 68
18:01:22.590972 602.78 1252 2952 14260 -1390 -48 59
18:01:22.615454 602.79 1264 2964 14064 -1384 -11 59
18:01:22.617291 602.8 1292 2928 14196 -1331 -71 66
18:01:22.620643 602.81 1208 2900 14100 -1346 8 72
18:01:22.645915 602.82 1260 2792 14136 -1287 -21 57
18:01:22.657757 602.83 1312 2848 14012 -1186 -4 49
18:01:22.658152 602.84 1296 2936 14224 -1203 44 23
18:01:22.658760 602.85 1396 2780 14260 -1169 -27 70
18:01:22.675036 602.86 1336 2744 14280 -1223 2 45
18:01:22.697879 602.87 1340 2688 14272 -1213 -64 47
18:01:22.705522 602.88 1276 2732 14208 -1172 18 13
18:01:22.705635 602.89 1344 2660 14088 -1218 -1 34
18:01:22.724060 602.9 1428 2572 14024 -1161 20 29
18:01:22.732784 602.91 1360 2600 14220 -1109 41 3
18:01:22.733411 602.92 1316 2648 14044 -1124 32 8
18:01:22.758346 602.93 1400 2604 14168 -1110 31 -19
18:01:22.771304 602.94 1392 2640 14068 -1056 24 16
18:01:22.771398 602.95 1300 2588 14268 -1105 -58 29
18:01:22.786429 602.96 1328 2620 14256 -1044 -21 56
18:01:22.805224 602.97 1348 2436 14216 -1015 5 -11
18:01:22.805522 602.98 1392 2396 14228 -1024 46 13
18:01:22.823555 602.99 1312 2460 14316 -980 31 24
18:01:22.833531 603.0 1404 2488 14192 -1052 10 15
18:01:22.833661 603.01 1328 2444 14136 -1082 -3 33
18:01:22.838352 603.02 1408 2400 14300 -968 59 -9
18:01:22.857619 603.03 1420 2436 14148 -963 28 2
18:01:22.865885 603.04 1400 2380 14252 -996 50 18
18:01:22.878831 603.05 1376 2372 14292 -967 18 12
18:01:22.901147 603.06 1408 2228 14088 -892 39 2
18:01:22.901481 603.07 1420 2436 14140 -875 61 38
18:01:22.901859 603.08 1436 2408 14136 -883 84 11
18:01:22.913715 603.09 1420 2312 14160 -857 67 15
18:01:22.935883 603.1 1460 2268 14216 -904 -24 26
18:01:22.936083 603.11 1424 2180 14056 -1014 -79 39
18:01:22.943972 603.12 1484 2112 14036 -1009 -111 31
18:01:22.957580 603.13 1484 2180 14332 -728 24 44
18:01:22.989669 603.14 1540 2184 14312 -427 121 18
18:01:23.002208 603.15 1680 2236 14296 -376 124 -15
18:01:23.002347 603.16 1440 2280 14268 -452 87 -14
18:01:23.002454 603.17 1452 2148 14184 -454 62 13
18:01:23.003272 603.18 1296 2120 14060 -435 11 33
18:01:23.010866 603.19 1468 2128 14136 -234 61 17
18:01:23.035647 603.2 1552 2164 14500 -11 266 -5
18:01:23.037439 603.21 1332 2368 14200 -538 234 88
18:01:23.040936 603.22 1400 2188 13640 -1181 -130 121
18:01:23.060217 603.23 1668 1964 14580 -72 270 3
18:01:23.073073 603.24 1552 2264 14360 815 160 -87
18:01:23.073198 603.25 1300 2228 13852 -414 -223 88
18:01:23.095726 603.26 1592 2008 14496 276 258 -4
18:01:23.104580 603.27 1428 2236 14116 179 240 -37
18:01:23.104830 603.28 1440 2036 13692 -705 -329 146
18:01:23.125107 603.29 1548 2000 14124 146 201 60
18:01:23.134952 603.3 1584 2264 14568 579 383 -46
18:01:23.135362 603.31 1384 2280 14784 623 412 -54
18:01:23.159602 603.32 1472 2404 14592 416 322 3
18:01:23.168673 603.33 1416 2424 14304 36 312 76
18:01:23.168806 603.34 1316 2240 14320 21 278 65
18:01:23.175851 603.35 1388 2284 14120 -67 193 84
18:01:23.194062 603.36 1408 2272 14152 -27 209 76
18:01:23.202250 603.37 1440 2168 14276 14 176 25
18:01:23.220826 603.38 1420 2240 14036 37 232 38
18:01:23.239953 603.39 1440 2144 14012 117 255 39
18:01:23.240083 603.4 1480 2204 14076 331 244 39
18:01:23.244597 603.41 1460 2084 14284 577 198 15
18:01:23.260570 603.42 1432 2180 14460 670 243 -6
18:01:23.272198 603.43 1544 2232 14440 633 285 -10
18:01:23.327020 603.44 1552 2336 14224 518 386 -25
18:01:23.359992 603.45 1420 2292 14356 456 414 -18
18:01:23.368191 603.46 1408 2196 14160 409 359 -20
18:01:23.368326 603.47 1584 2296 14248 325 302 -6
18:01:23.368433 603.48 1544 2296 14204 295 289 -8
18:01:23.368719 603.49 1488 2348 14256 311 282 -13
18:01:23.368855 603.5 1472 2320 14248 298 281 -9
18:01:23.369197 603.51 1392 2332 14060 443 354 -8
18:01:23.370120 603.52 1424 2436 14320 595 336 -10
18:01:23.437141 603.53 1512 2504 14200 764 408 -39
18:01:23.440785 603.54 1400 2360 14228 855 410 -83
18:01:23.440883 603.55 1484 2496 14328 963 613 -75
18:01:23.440985 603.56 1252 2504 14032 873 578 -33
18:01:23.444581 603.57 1500 2568 13936 384 333 44
18:01:23.460320 603.58 1444 2392 14176 586 454 -23
18:01:23.470156 603.59 1304 2512 14140 883 417 -32
18:01:23.470256 603.6 1412 2556 14140 662 216 -20
18:01:23.470333 603.61 1392 2456 14232 885 353 -60
18:01:23.470405 603.62 1392 2568 14184 945 329 -39
18:01:23.470476 603.63 1488 2596 14272 930 341 13
18:01:23.478936 603.64 1480 2724 14088 886 330 -1
18:01:23.481807 603.65 1464 2580 14024 830 324 -65
18:01:23.484015 603.66 1400 2668 14236 955 400 -72
18:01:23.507983 603.67 1484 2736 14108 1100 476 -78
18:01:23.509713 603.68 1404 2772 14180 1155 507 -97
18:01:23.530583 603.69 1408 2676 14208 1110 560 -89
18:01:23.538333 603.7 1396 2640 14196 1083 546 -64
18:01:23.557306 603.71 1292 2788 14152 1018 422 -48
18:01:23.571686 603.72 1468 2700 14084 1152 454 -70
18:01:23.571878 603.73 1344 2860 14140 1326 473 -85
18:01:23.573500 603.74 1344 2864 14152 1208 460 -78
18:01:23.581251 603.75 1260 2972 14072 1129 552 -83
18:01:23.593124 603.76 1312 2916 14124 1218 480 -73
18:01:23.612335 603.77 1340 2932 14152 1313 525 -94
18:01:23.632728 603.78 1324 3060 14140 1392 494 -53
18:01:23.643275 603.79 1192 3068 14088 1406 535 -69
18:01:23.643484 603.8 1260 3104 14136 1257 487 -78
18:01:23.651198 603.81 1344 3224 13992 1262 501 -41
18:01:23.675745 603.82 1332 3196 14036 1207 502 -30
18:01:23.675935 603.83 1224 3212 14116 1162 480 -39
18:01:23.676091 603.84 1132 3220 13984 1124 467 -41
18:01:23.733503 603.85 1312 3208 14224 1142 472 -97
18:01:23.742006 603.86 1356 3344 14040 1202 462 -56
18:01:23.742115 603.87 1200 3340 13984 1145 559 -92
18:01:23.742186 603.88 1332 3328 14032 1331 570 -99
18:01:23.742255 603.89 1144 3424 13968 1177 528 -73
18:01:23.748255 603.9 1268 3280 14100 898 453 -67
18:01:23.749795 603.91 1160 3276 14072 974 554 -71
18:01:23.764906 603.92 1104 3368 14132 1159 573 -82
18:01:23.814120 603.93 1236 3440 14028 976 406 -54
18:01:23.904986 603.94 1212 3472 14052 971 527 -91
18:01:23.906775 603.95 1240 3360 13948 1200 500 -104
18:01:23.908508 603.96 1192 3572 13940 1083 358 -71
18:01:23.909617 603.97 1344 3616 14104 937 461 -92
18:01:23.927157 603.98 1220 3628 14088 1028 464 -80
18:01:23.970384 603.99 1192 3592 14112 1068 447 -103
18:01:23.973911 604.0 1100 3772 14016 995 352 -91
18:01:23.974065 604.01 1148 3668 13980 930 377 -60
18:01:23.974190 604.02 1192 3672 14132 898 443 -59
18:01:23.976941 604.03 1108 3688 13964 989 449 -56
18:01:23.979309 604.04 1148 3740 13948 940 539 -72
18:01:23.980566 604.05 1116 3848 13944 839 472 -38
18:01:23.982710 604.06 1212 3728 13872 637 436 -79
18:01:23.986681 604.07 1120 3824 13876 563 378 -39
18:01:24.008342 604.08 1148 3888 13788 666 385 -58
18:01:24.008540 604.09 1180 3912 14096 857 393 -105
18:01:24.008782 604.1 1156 4000 14200 891 480 -93
18:01:24.009041 604.11 1152 4004 13924 703 475 -79
18:01:24.009299 604.12 924 3876 13980 624 405 -65
18:01:24.009555 604.13 1092 3928 13772 573 335 -39
18:01:24.033173 604.14 1180 3976 14084 614 293 -61
18:01:24.042922 604.15 1020 3964 14008 559 407 -14
18:01:24.048720 604.16 1000 4080 13392 -242 265 46
18:01:24.051128 604.17 1312 4012 14088 8 343 -28
18:01:24.066579 604.18 1232 4136 14512 971 538 -136
18:01:24.107519 604.19 1028 4248 14084 657 284 -75
18:01:24.108823 604.2 1148 4028 13988 265 149 -30
18:01:24.115419 604.21 1060 4108 13860 485 409 -57
18:01:24.115852 604.22 964 4028 13400 -373 -40 101
18:01:24.144373 604.23 1132 3924 13692 5 110 72
18:01:24.172596 604.24 1224 4152 13928 371 2 52
18:01:24.175557 604.25 1120 4108 14196 565 -79 23
18:01:24.175819 604.26 952 4200 14260 362 -98 56
18:01:24.195213 604.27 1024 4172 14076 -11 80 50
18:01:24.207907 604.28 1008 4216 13860 110 259 58
18:01:24.208173 604.29 1036 4224 13884 290 206 41
18:01:24.241847 604.3 1120 4220 13868 304 264 -3
18:01:24.242828 604.31 1060 4240 13796 209 402 -47
18:01:24.244071 604.32 988 4276 13740 136 400 -15
18:01:24.246566 604.33 1040 4160 13792 275 340 -34
18:01:24.301202 604.34 1124 4160 13816 454 314 -38
18:01:24.308412 604.35 1140 4220 13836 514 328 -22
18:01:24.308527 604.36 1044 4148 14044 492 360 -51
18:01:24.308631 604.37 1140 4112 13900 431 351 -41
18:01:24.308740 604.38 1020 4220 13912 333 354 -78
18:01:24.308817 604.39 1064 4268 13932 303 359 -34
18:01:24.308893 604.4 1192 4216 13712 210 361 -17
18:01:24.309063 604.41 1052 4276 13856 220 310 -20
18:01:24.318432 604.42 1092 4280 13836 176 330 -44
18:01:24.339633 604.43 1116 4248 13924 125 332 -8
18:01:24.369695 604.44 1028 4280 13808 119 370 -22
18:01:24.377379 604.45 964 4212 13952 137 345 -16
18:01:24.377638 604.46 1084 4344 13856 221 369 -41
18:01:24.377916 604.47 1008 4364 13884 271 387 -49
18:01:24.378179 604.48 956 4332 13904 358 407 -58
18:01:24.404649 604.49 964 4372 13752 346 312 -43
18:01:24.408773 604.5 888 4376 14184 524 632 -73
18:01:24.408975 604.51 896 4444 13776 342 505 -29
18:01:24.413393 604.52 908 4260 13424 -160 331 16
18:01:24.433034 604.53 1028 4312 13652 162 469 -54
18:01:24.442163 604.54 1116 4428 13988 528 418 -103
18:01:24.465952 604.55 1000 4424 13864 357 324 -100
18:01:24.477312 604.56 1032 4380 13800 156 283 -28
18:01:24.477605 604.57 988 4492 13704 54 260 -21
18:01:24.481980 604.58 1020 4404 13820 108 227 6
18:01:24.527287 604.59 1092 4380 13860 131 156 -15
18:01:24.545512 604.6 1036 4436 13812 92 183 -10
18:01:24.545818 604.61 1028 4420 13976 -28 323 -32
18:01:24.546057 604.62 952 4496 13816 50 311 -58
18:01:24.546284 604.63 992 4396 13968 7 335 -16
18:01:24.596958 604.64 1028 4500 13836 -26 307 -9
18:01:24.607322 604.65 1020 4396 13848 -51 280 -3
18:01:24.607614 604.66 912 4420 13852 -58 258 -18
18:01:24.607858 604.67 1004 4392 14012 31 260 -27
