18:00:00.004791, 260.1575, 4132
18:00:00.004873, 260.16, 4182
18:00:00.004899, 260.1625, 4179
18:00:00.004919, 260.165, 4182
18:00:00.005282, 260.1675, 4152
18:00:00.005306, 260.17, 4199
18:00:00.005322, 260.1725, 4192
18:00:00.005336, 260.175, 4189
18:00:00.005989, 260.1775, 4217
18:00:00.006018, 260.18, 4220
18:00:00.006033, 260.1825, 4227
18:00:00.006047, 260.185, 4193
18:00:00.015154, 260.1875, 4242
18:00:00.015243, 260.19, 4219
18:00:00.015299, 260.1925, 4224
18:00:00.015350, 260.195, 4226
18:00:00.039909, 260.1975, 4223
18:00:00.040010, 260.2, 4225
18:00:00.040043, 260.2025, 4191
18:00:00.040071, 260.205, 4221
18:00:00.041204, 260.2075, 4199
18:00:00.041244, 260.21, 4178
18:00:00.041273, 260.2125, 4188
18:00:00.041300, 260.215, 4203
18:00:00.041328, 260.2175, 4208
18:00:00.049874, 260.22, 4216
18:00:00.049905, 260.2225, 4211
18:00:00.049924, 260.225, 4184
18:00:00.049942, 260.2275, 4179
18:00:00.073622, 260.23, 4186
18:00:00.073709, 260.2325, 4196
18:00:00.073745, 260.235, 4194
18:00:00.073775, 260.2375, 4160
18:00:00.074272, 260.24, 4211
18:00:00.074304, 260.2425, 4194
18:00:00.074328, 260.245, 4173
18:00:00.074351, 260.2475, 4208
18:00:00.076923, 260.25, 4209
18:00:00.077049, 260.2525, 4190
18:00:00.077133, 260.255, 4155
18:00:00.077213, 260.2575, 4184
18:00:00.103374, 260.26, 4191
18:00:00.103498, 260.2625, 4164
18:00:00.103538, 260.265, 4188
18:00:00.103569, 260.2675, 4170
18:00:00.104137, 260.27, 4187
18:00:00.104185, 260.2725, 4161
18:00:00.104208, 260.275, 4180
18:00:00.104231, 260.2775, 4162
18:00:00.111530, 260.28, 4132
18:00:00.111619, 260.2825, 4167
18:00:00.111679, 260.285, 4168
18:00:00.111733, 260.2875, 4169
18:00:00.140185, 260.29, 4126
18:00:00.140248, 260.2925, 4176
18:00:00.140273, 260.295, 4168
18:00:00.140293, 260.2975, 4137
18:00:00.140642, 260.3, 4168
18:00:00.140667, 260.3025, 4187
18:00:00.140682, 260.305, 4169
18:00:00.140697, 260.3075, 4124
18:00:00.140711, 260.31, 4159
18:00:00.148606, 260.3125, 4157
18:00:00.148680, 260.315, 4133
18:00:00.148726, 260.3175, 4176
18:00:00.148766, 260.32, 4189
18:00:00.149646, 260.3225, 4181
18:00:00.149705, 260.325, 4157
18:00:00.149747, 260.3275, 4197
18:00:00.149789, 260.33, 4217
18:00:00.171520, 260.3325, 4197
18:00:00.171581, 260.335, 4204
18:00:00.171605, 260.3375, 4210
18:00:00.171627, 260.34, 4208
18:00:00.183797, 260.3425, 4201
18:00:00.184193, 260.345, 4186
18:00:00.184406, 260.3475, 4161
18:00:00.184440, 260.35, 4137
18:00:00.186313, 260.3525, 4166
18:00:00.186396, 260.355, 4179
18:00:00.186611, 260.3575, 4194
18:00:00.186680, 260.36, 4143
18:00:00.206713, 260.3625, 4165
18:00:00.206765, 260.365, 4164
18:00:00.206789, 260.3675, 4167
18:00:00.206809, 260.37, 4190
18:00:00.207168, 260.3725, 4210
18:00:00.207193, 260.375, 4197
18:00:00.207209, 260.3775, 4143
18:00:00.207223, 260.38, 4177
18:00:00.207238, 260.3825, 4171
18:00:00.216212, 260.385, 4154
18:00:00.216268, 260.3875, 4170
18:00:00.216298, 260.39, 4185
18:00:00.216325, 260.3925, 4174
18:00:00.238205, 260.395, 4151
18:00:00.238308, 260.3975, 4188
18:00:00.238346, 260.4, 4186
18:00:00.238376, 260.4025, 4182
18:00:00.238995, 260.405, 4186
18:00:00.239051, 260.4075, 4179
18:00:00.239074, 260.41, 4178
18:00:00.239097, 260.4125, 4146
18:00:00.271966, 260.415, 4163
18:00:00.272106, 260.4175, 4163
18:00:00.272161, 260.42, 4152
18:00:00.272201, 260.4225, 4175
18:00:00.272767, 260.425, 4189
18:00:00.272811, 260.4275, 4178
18:00:00.272833, 260.43, 4111
18:00:00.272853, 260.4325, 4152
18:00:00.273260, 260.435, 4167
18:00:00.273293, 260.4375, 4174
18:00:00.273313, 260.44, 4166
18:00:00.273333, 260.4425, 4166
18:00:00.277798, 260.445, 4162
18:00:00.277876, 260.4475, 4027
18:00:00.277927, 260.45, 4205
18:00:00.277972, 260.4525, 4183
18:00:00.278019, 260.455, 4139
18:00:00.307757, 260.4575, 4168
18:00:00.307810, 260.46, 4169
18:00:00.307828, 260.4625, 4156
18:00:00.307843, 260.465, 4128
18:00:00.310986, 260.4675, 4184
18:00:00.311009, 260.47, 4190
18:00:00.311025, 260.4725, 4163
18:00:00.311039, 260.475, 4144
18:00:00.313502, 260.4775, 4161
18:00:00.313543, 260.48, 4150
18:00:00.313567, 260.4825, 4012
18:00:00.313589, 260.485, 4155
18:00:00.315061, 260.4875, 4161
18:00:00.315147, 260.49, 4145
18:00:00.315213, 260.4925, 4144
18:00:00.315336, 260.495, 4209
18:00:00.341943, 260.4975, 4187
18:00:00.342012, 260.5, 4152
18:00:00.342037, 260.5025, 4184
18:00:00.342058, 260.505, 4167
18:00:00.342420, 260.5075, 4121
18:00:00.342443, 260.51, 4152
18:00:00.342459, 260.5125, 4160
18:00:00.342475, 260.515, 4168
18:00:00.381511, 260.5175, 4134
18:00:00.381567, 260.52, 4182
18:00:00.381585, 260.5225, 4180
18:00:00.381601, 260.525, 4141
18:00:00.382730, 260.5275, 4166
18:00:00.382753, 260.53, 4178
18:00:00.382768, 260.5325, 4160
18:00:00.382782, 260.535, 4134
18:00:00.382797, 260.5375, 4180
18:00:00.383968, 260.54, 4170
18:00:00.383988, 260.5425, 4152
18:00:00.384003, 260.545, 4167
18:00:00.384017, 260.5475, 4160
18:00:00.386111, 260.55, 4170
18:00:00.386158, 260.5525, 4117
18:00:00.386179, 260.555, 4162
18:00:00.386198, 260.5575, 4152
18:00:00.408135, 260.56, 4143
18:00:00.408307, 260.5625, 4024
18:00:00.408359, 260.565, 4199
18:00:00.408571, 260.5675, 4190
18:00:00.409657, 260.57, 4169
18:00:00.409741, 260.5725, 4183
18:00:00.409798, 260.575, 4176
18:00:00.409850, 260.5775, 4170
18:00:00.410757, 260.58, 4196
18:00:00.410824, 260.5825, 4173
18:00:00.410900, 260.585, 4162
18:00:00.410953, 260.5875, 4137
18:00:00.417234, 260.59, 4151
18:00:00.417260, 260.5925, 4122
18:00:00.417275, 260.595, 4141
18:00:00.417290, 260.5975, 4195
18:00:00.437597, 260.6, 4199
18:00:00.437644, 260.6025, 4198
18:00:00.437667, 260.605, 4165
18:00:00.437687, 260.6075, 4199
18:00:00.437718, 260.61, 4151
18:00:00.443686, 260.6125, 4129
18:00:00.443766, 260.615, 4131
18:00:00.443802, 260.6175, 4162
18:00:00.443834, 260.62, 4167
18:00:00.453017, 260.6225, 4157
18:00:00.453067, 260.625, 4185
18:00:00.453089, 260.6275, 4179
18:00:00.453108, 260.63, 4139
18:00:00.471184, 260.6325, 4154
18:00:00.471344, 260.635, 4148
18:00:00.471390, 260.6375, 4165
18:00:00.471421, 260.64, 4131
18:00:00.472041, 260.6425, 4172
18:00:00.472103, 260.645, 4177
18:00:00.472129, 260.6475, 4150
18:00:00.472153, 260.65, 4178
18:00:00.478313, 260.6525, 4181
18:00:00.478359, 260.655, 4164
18:00:00.478380, 260.6575, 4118
18:00:00.478400, 260.66, 4162
18:00:00.478419, 260.6625, 4168
18:00:00.506746, 260.665, 4145
18:00:00.506926, 260.6675, 4177
18:00:00.506998, 260.67, 4167
18:00:00.507054, 260.6725, 4179
18:00:00.507645, 260.675, 4169
18:00:00.507688, 260.6775, 4184
18:00:00.507716, 260.68, 4167
18:00:00.507741, 260.6825, 4150
18:00:00.513404, 260.685, 4190
18:00:00.513429, 260.6875, 4197
18:00:00.513444, 260.69, 4177
18:00:00.513459, 260.6925, 4160
18:00:00.539398, 260.695, 4201
18:00:00.539541, 260.6975, 4185
18:00:00.539581, 260.7, 4152
18:00:00.539744, 260.7025, 4175
18:00:00.540297, 260.705, 4142
18:00:00.540338, 260.7075, 4144
18:00:00.540361, 260.71, 4125
18:00:00.540383, 260.7125, 4197
18:00:00.540776, 260.715, 4186
18:00:00.540806, 260.7175, 4151
18:00:00.540828, 260.72, 4188
18:00:00.540849, 260.7225, 4187
18:00:00.572088, 260.725, 4191
18:00:00.572201, 260.7275, 4147
18:00:00.572228, 260.73, 4186
18:00:00.572249, 260.7325, 4179
18:00:00.572270, 260.735, 4161
18:00:00.572682, 260.7375, 4204
18:00:00.572726, 260.74, 4209
18:00:00.572743, 260.7425, 4169
18:00:00.574606, 260.745, 4128
18:00:00.574643, 260.7475, 4195
18:00:00.574658, 260.75, 4194
18:00:00.574672, 260.7525, 4189
18:00:00.583266, 260.755, 4183
18:00:00.583292, 260.7575, 4190
18:00:00.583317, 260.76, 4195
18:00:00.583331, 260.7625, 4167
18:00:00.583345, 260.765, 4194
18:00:00.605237, 260.7675, 4186
18:00:00.605314, 260.77, 4169
18:00:00.605373, 260.7725, 4145
18:00:00.605396, 260.775, 4162
18:00:00.605745, 260.7775, 4181
18:00:00.605784, 260.78, 4147
18:00:00.605800, 260.7825, 4208
18:00:00.605815, 260.785, 4196
18:00:00.618971, 260.7875, 4181
18:00:00.619064, 260.79, 4154
18:00:00.619090, 260.7925, 4133
18:00:00.619117, 260.795, 4126
18:00:00.638688, 260.7975, 4089
18:00:00.638763, 260.8, 4102
18:00:00.638786, 260.8025, 4117
18:00:00.638804, 260.805, 4136
18:00:00.639376, 260.8075, 4167
18:00:00.639425, 260.81, 4163
18:00:00.639451, 260.8125, 4179
18:00:00.639475, 260.815, 4135
18:00:00.644568, 260.8175, 4201
18:00:00.644612, 260.82, 4212
18:00:00.644632, 260.8225, 4193
18:00:00.644682, 260.825, 4214
18:00:00.654195, 260.8275, 4219
18:00:00.654272, 260.83, 4215
18:00:00.654298, 260.8325, 4213
18:00:00.654333, 260.835, 4250
18:00:00.675074, 260.8375, 4244
18:00:00.675154, 260.84, 4221
18:00:00.675183, 260.8425, 4238
18:00:00.675210, 260.845, 4220
18:00:00.679631, 260.8475, 4196
18:00:00.679657, 260.85, 4170
18:00:00.679674, 260.8525, 4187
18:00:00.679689, 260.855, 4168
18:00:00.679704, 260.8575, 4150
18:00:00.688990, 260.86, 4193
18:00:00.689112, 260.8625, 4205
18:00:00.689142, 260.865, 4189
18:00:00.689170, 260.8675, 4158
18:00:00.710798, 260.87, 4185
18:00:00.710966, 260.8725, 4191
18:00:00.711030, 260.875, 4166
18:00:00.711069, 260.8775, 4194
18:00:00.711631, 260.88, 4177
18:00:00.711671, 260.8825, 4184
18:00:00.711699, 260.885, 4140
18:00:00.711726, 260.8875, 4192
18:00:00.714738, 260.89, 4184
18:00:00.714806, 260.8925, 4217
18:00:00.714917, 260.895, 4305
18:00:00.714969, 260.8975, 4343
18:00:00.742376, 260.9, 4409
18:00:00.742488, 260.9025, 4386
18:00:00.742543, 260.905, 4465
18:00:00.742586, 260.9075, 4418
18:00:00.743496, 260.91, 4237
18:00:00.743568, 260.9125, 4040
18:00:00.743617, 260.915, 3805
18:00:00.743663, 260.9175, 3528
18:00:00.750055, 260.92, 3253
18:00:00.750125, 260.9225, 2940
18:00:00.750173, 260.925, 2519
18:00:00.750219, 260.9275, 2075
18:00:00.772663, 260.93, 1898
18:00:00.772779, 260.9325, 1824
18:00:00.772819, 260.935, 2043
18:00:00.772856, 260.9375, 2493
18:00:00.772916, 260.94, 3368
18:00:00.773428, 260.9425, 4326
18:00:00.773503, 260.945, 4850
18:00:00.773547, 260.9475, 5052
18:00:00.773579, 260.95, 5059
18:00:00.785262, 260.9525, 4958
18:00:00.785354, 260.955, 4769
18:00:00.785419, 260.9575, 4682
18:00:00.785476, 260.96, 4597
18:00:00.806235, 260.9625, 4549
18:00:00.806324, 260.965, 4542
18:00:00.806362, 260.9675, 4495
18:00:00.806398, 260.97, 4505
18:00:00.807016, 260.9725, 4455
18:00:00.807085, 260.975, 4494
18:00:00.807112, 260.9775, 4499
18:00:00.807156, 260.98, 4468
18:00:00.811137, 260.9825, 4483
18:00:00.811181, 260.985, 4474
18:00:00.811205, 260.9875, 4432
18:00:00.811227, 260.99, 4382
18:00:00.819496, 260.9925, 4425
18:00:00.819535, 260.995, 4421
18:00:00.819550, 260.9975, 4388
18:00:00.819564, 261.0, 4386
18:00:00.841544, 261.0025, 4377
18:00:00.841668, 261.005, 4376
18:00:00.841731, 261.0075, 4331
18:00:00.841792, 261.01, 4352
18:00:00.841857, 261.0125, 4362
18:00:00.846116, 261.015, 4320
18:00:00.846172, 261.0175, 4338
18:00:00.846212, 261.02, 4327
18:00:00.846251, 261.0225, 4311
18:00:00.874892, 261.025, 4298
18:00:00.875050, 261.0275, 4285
18:00:00.875088, 261.03, 4285
18:00:00.875118, 261.0325, 4300
18:00:00.875687, 261.035, 4279
18:00:00.875742, 261.0375, 4261
18:00:00.875768, 261.04, 4249
18:00:00.875790, 261.0425, 4218
18:00:00.876199, 261.045, 4249
18:00:00.876239, 261.0475, 4257
18:00:00.876264, 261.05, 4223
18:00:00.876286, 261.0525, 4242
18:00:00.881129, 261.055, 4265
18:00:00.881196, 261.0575, 4248
18:00:00.881222, 261.06, 4190
18:00:00.881268, 261.0625, 4214
18:00:00.909988, 261.065, 4217
18:00:00.910086, 261.0675, 4221
18:00:00.910128, 261.07, 4228
18:00:00.910165, 261.0725, 4227
18:00:00.910789, 261.075, 4214
18:00:00.910828, 261.0775, 4216
18:00:00.910917, 261.08, 4221
18:00:00.910982, 261.0825, 4223
18:00:00.911034, 261.085, 4212
18:00:00.916601, 261.0875, 4232
18:00:00.916695, 261.09, 4225
18:00:00.916752, 261.0925, 4241
18:00:00.916803, 261.095, 4201
18:00:00.941166, 261.0975, 4221
18:00:00.941315, 261.1, 4204
18:00:00.941365, 261.1025, 4190
18:00:00.941496, 261.105, 4194
18:00:00.942075, 261.1075, 4210
18:00:00.942117, 261.11, 4199
18:00:00.942133, 261.1125, 4180
18:00:00.942150, 261.115, 4218
18:00:00.942429, 261.1175, 4191
18:00:00.942464, 261.12, 4157
18:00:00.942486, 261.1225, 4151
18:00:00.942511, 261.125, 4150
18:00:00.973868, 261.1275, 4165
18:00:00.973932, 261.13, 4119
18:00:00.973954, 261.1325, 4172
18:00:00.973971, 261.135, 4175
18:00:00.974464, 261.1375, 4143
18:00:00.974524, 261.14, 4153
18:00:00.974541, 261.1425, 4174
18:00:00.974557, 261.145, 4167
18:00:00.977394, 261.1475, 4144
18:00:00.977441, 261.15, 4176
18:00:00.977502, 261.1525, 4160
18:00:00.977528, 261.155, 4145
18:00:00.986059, 261.1575, 4167
18:00:00.986096, 261.16, 4181
18:00:00.986117, 261.1625, 4178
18:00:00.986135, 261.165, 4148
18:00:01.012209, 261.1675, 4183
18:00:01.012323, 261.17, 4193
18:00:01.012359, 261.1725, 4167
18:00:01.012401, 261.175, 4190
18:00:01.012811, 261.1775, 4182
18:00:01.012842, 261.18, 4185
18:00:01.012864, 261.1825, 4153
18:00:01.012885, 261.185, 4211
18:00:01.021849, 261.1875, 4191
18:00:01.021902, 261.19, 4172
18:00:01.021921, 261.1925, 4195
18:00:01.021940, 261.195, 4193
18:00:01.049160, 261.1975, 4200
18:00:01.049299, 261.2, 4176
18:00:01.049374, 261.2025, 4194
18:00:01.049435, 261.205, 4188
18:00:01.049482, 261.2075, 4177
18:00:01.050288, 261.21, 4206
18:00:01.050337, 261.2125, 4181
18:00:01.050372, 261.215, 4172
18:00:01.050406, 261.2175, 4132
18:00:01.051013, 261.22, 4131
18:00:01.051034, 261.2225, 4130
18:00:01.051049, 261.225, 4108
18:00:01.051064, 261.2275, 4155
18:00:01.056057, 261.23, 4177
18:00:01.056108, 261.2325, 4165
18:00:01.056129, 261.235, 4153
18:00:01.056169, 261.2375, 4203
18:00:01.074323, 261.24, 4188
18:00:01.074403, 261.2425, 4189
18:00:01.074433, 261.245, 4201
18:00:01.074459, 261.2475, 4204
18:00:01.083306, 261.25, 4194
18:00:01.083440, 261.2525, 4150
18:00:01.083525, 261.255, 4207
18:00:01.083602, 261.2575, 4196
18:00:01.108050, 261.26, 4196
18:00:01.108115, 261.2625, 4246
18:00:01.108151, 261.265, 4264
18:00:01.108186, 261.2675, 4252
18:00:01.108746, 261.27, 4211
18:00:01.108791, 261.2725, 4239
18:00:01.108842, 261.275, 4264
18:00:01.108872, 261.2775, 4235
18:00:01.109474, 261.28, 4252
18:00:01.109522, 261.2825, 4239
18:00:01.109551, 261.285, 4260
18:00:01.109582, 261.2875, 4217
18:00:01.109609, 261.29, 4248
18:00:01.118028, 261.2925, 4264
18:00:01.118127, 261.295, 4229
18:00:01.118195, 261.2975, 4254
18:00:01.118260, 261.3, 4245
18:00:01.141278, 261.3025, 4228
18:00:01.141365, 261.305, 4218
18:00:01.141403, 261.3075, 4240
18:00:01.141480, 261.31, 4237
18:00:01.143413, 261.3125, 4211
18:00:01.143460, 261.315, 4237
18:00:01.143490, 261.3175, 4242
18:00:01.143517, 261.32, 4249
18:00:01.152357, 261.3225, 4222
18:00:01.152401, 261.325, 4258
18:00:01.152434, 261.3275, 4262
18:00:01.152465, 261.33, 4249
18:00:01.175427, 261.3325, 4253
18:00:01.175521, 261.335, 4225
18:00:01.175574, 261.3375, 4234
18:00:01.175625, 261.34, 4179
18:00:01.176427, 261.3425, 4230
18:00:01.176492, 261.345, 4206
18:00:01.176535, 261.3475, 4202
18:00:01.176576, 261.35, 4205
18:00:01.178718, 261.3525, 4210
18:00:01.178778, 261.355, 4214
18:00:01.178820, 261.3575, 4169
18:00:01.178907, 261.36, 4218
18:00:01.209370, 261.3625, 4201
18:00:01.209482, 261.365, 4171
18:00:01.209539, 261.3675, 4176
18:00:01.209622, 261.37, 4187
18:00:01.209680, 261.3725, 4187
18:00:01.210618, 261.375, 4159
18:00:01.210687, 261.3775, 4202
18:00:01.210737, 261.38, 4196
18:00:01.210776, 261.3825, 4194
18:00:01.213707, 261.385, 4216
18:00:01.213766, 261.3875, 4209
18:00:01.213807, 261.39, 4220
18:00:01.213844, 261.3925, 4172
18:00:01.222253, 261.395, 4231
18:00:01.222297, 261.3975, 4211
18:00:01.222329, 261.4, 4189
18:00:01.222367, 261.4025, 4196
18:00:01.242716, 261.405, 4212
18:00:01.242796, 261.4075, 4196
18:00:01.242832, 261.41, 4172
18:00:01.242872, 261.4125, 4184
18:00:01.243421, 261.415, 4190
18:00:01.243467, 261.4175, 4172
18:00:01.243489, 261.42, 4177
18:00:01.243510, 261.4225, 4197
18:00:01.258175, 261.425, 4184
18:00:01.258244, 261.4275, 4161
18:00:01.258349, 261.43, 4216
18:00:01.258368, 261.4325, 4201
18:00:01.278360, 261.435, 4162
18:00:01.278461, 261.4375, 4180
18:00:01.278630, 261.44, 4189
18:00:01.278709, 261.4425, 4182
18:00:01.279345, 261.445, 4160
18:00:01.279398, 261.4475, 4217
18:00:01.279435, 261.45, 4219
18:00:01.279469, 261.4525, 4185
18:00:01.283644, 261.455, 4185
18:00:01.283705, 261.4575, 4181
18:00:01.283743, 261.46, 4189
18:00:01.283777, 261.4625, 4167
18:00:01.283810, 261.465, 4202
18:00:01.292288, 261.4675, 4192
18:00:01.292346, 261.47, 4178
18:00:01.292815, 261.4725, 4195
18:00:01.292847, 261.475, 4190
18:00:01.316812, 261.4775, 4182
18:00:01.316943, 261.48, 4147
18:00:01.317001, 261.4825, 4189
18:00:01.317029, 261.485, 4203
18:00:01.318344, 261.4875, 4183
18:00:01.318376, 261.49, 4183
18:00:01.318398, 261.4925, 4169
18:00:01.318418, 261.495, 4163
18:00:01.352688, 261.4975, 4131
18:00:01.352750, 261.5, 4139
18:00:01.352775, 261.5025, 4159
18:00:01.352793, 261.505, 4144
18:00:01.353142, 261.5075, 4156
18:00:01.353168, 261.51, 4151
18:00:01.353183, 261.5125, 4167
18:00:01.353198, 261.515, 4135
18:00:01.353448, 261.5175, 4192
18:00:01.353467, 261.52, 4187
18:00:01.353481, 261.5225, 4172
18:00:01.353495, 261.525, 4200
18:00:01.386932, 261.5275, 4202
18:00:01.387000, 261.53, 4175
18:00:01.387033, 261.5325, 4133
18:00:01.387058, 261.535, 4146
18:00:01.387400, 261.5375, 4175
18:00:01.387422, 261.54, 4169
18:00:01.387437, 261.5425, 4191
18:00:01.387450, 261.545, 4194
18:00:01.388707, 261.5475, 4170
18:00:01.388727, 261.55, 4139
18:00:01.388746, 261.5525, 4179
18:00:01.388760, 261.555, 4152
18:00:01.388774, 261.5575, 4157
18:00:01.418928, 261.56, 4166
18:00:01.419011, 261.5625, 4177
18:00:01.419110, 261.565, 4177
18:00:01.419159, 261.5675, 4137
18:00:01.419701, 261.57, 4184
18:00:01.419746, 261.5725, 4190
18:00:01.419779, 261.575, 4189
18:00:01.419810, 261.5775, 4183
18:00:01.420367, 261.58, 4214
18:00:01.420408, 261.5825, 4176
18:00:01.420440, 261.585, 4007
18:00:01.420471, 261.5875, 4170
18:00:01.421039, 261.59, 4148
18:00:01.421081, 261.5925, 4136
18:00:01.421113, 261.595, 4050
18:00:01.421144, 261.5975, 4216
18:00:01.446412, 261.6, 4202
18:00:01.446469, 261.6025, 4155
18:00:01.446493, 261.605, 4187
18:00:01.446514, 261.6075, 4201
18:00:01.447000, 261.61, 4175
18:00:01.447046, 261.6125, 4198
18:00:01.447077, 261.615, 4190
18:00:01.447106, 261.6175, 4172
18:00:01.481528, 261.62, 4156
18:00:01.481607, 261.6225, 4188
18:00:01.481644, 261.625, 4157
18:00:01.481688, 261.6275, 4149
18:00:01.482016, 261.63, 4153
18:00:01.482039, 261.6325, 4173
18:00:01.482054, 261.635, 4156
18:00:01.482068, 261.6375, 4156
18:00:01.482082, 261.64, 4184
18:00:01.486911, 261.6425, 4191
18:00:01.486950, 261.645, 4174
18:00:01.486976, 261.6475, 4170
18:00:01.486998, 261.65, 4179
18:00:01.488416, 261.6525, 4166
18:00:01.488477, 261.655, 4137
18:00:01.488520, 261.6575, 4186
18:00:01.488561, 261.66, 4186
18:00:01.510800, 261.6625, 4140
18:00:01.510983, 261.665, 4159
18:00:01.511026, 261.6675, 4162
18:00:01.511061, 261.67, 4162
18:00:01.511857, 261.6725, 4031
18:00:01.511913, 261.675, 4177
18:00:01.511942, 261.6775, 4160
18:00:01.511968, 261.68, 4154
18:00:01.512433, 261.6825, 4171
18:00:01.512470, 261.685, 4187
18:00:01.512496, 261.6875, 4187
18:00:01.512522, 261.69, 4128
18:00:01.519457, 261.6925, 4162
18:00:01.519489, 261.695, 4156
18:00:01.519505, 261.6975, 4139
18:00:01.519519, 261.7, 4160
18:00:01.546620, 261.7025, 4157
18:00:01.546680, 261.705, 4132
18:00:01.546702, 261.7075, 4114
18:00:01.546720, 261.71, 4150
18:00:01.546768, 261.7125, 4145
18:00:01.557018, 261.715, 4148
18:00:01.557048, 261.7175, 4164
18:00:01.557064, 261.72, 4173
18:00:01.557078, 261.7225, 4159
18:00:01.558995, 261.725, 4145
18:00:01.559038, 261.7275, 4181
18:00:01.559057, 261.73, 4177
18:00:01.559074, 261.7325, 4174
18:00:01.579888, 261.735, 4181
18:00:01.579945, 261.7375, 4172
18:00:01.579966, 261.74, 4141
18:00:01.579985, 261.7425, 4006
18:00:01.580322, 261.745, 4177
18:00:01.580348, 261.7475, 4173
18:00:01.580362, 261.75, 4123
18:00:01.580376, 261.7525, 4176
18:00:01.592696, 261.755, 4154
18:00:01.592747, 261.7575, 4146
18:00:01.592767, 261.76, 4119
18:00:01.592785, 261.7625, 4161
18:00:01.593412, 261.765, 4153
18:00:01.593467, 261.7675, 4135
18:00:01.593485, 261.77, 4171
18:00:01.593501, 261.7725, 4134
18:00:01.613743, 261.775, 4137
18:00:01.613857, 261.7775, 4001
18:00:01.613878, 261.78, 4168
18:00:01.613897, 261.7825, 4160
18:00:01.613915, 261.785, 4130
18:00:01.627112, 261.7875, 4145
18:00:01.628137, 261.79, 4154
18:00:01.628376, 261.7925, 4147
18:00:01.647891, 261.795, 4116
18:00:01.647994, 261.7975, 4163
18:00:01.648030, 261.8, 4159
18:00:01.648110, 261.8025, 4161
18:00:01.648590, 261.805, 4204
18:00:01.648683, 261.8075, 4184
18:00:01.648711, 261.81, 4173
18:00:01.648733, 261.8125, 4012
18:00:01.648755, 261.815, 4199
18:00:01.649168, 261.8175, 4195
18:00:01.649199, 261.82, 4171
18:00:01.649222, 261.8225, 4186
18:00:01.649244, 261.825, 4173
18:00:01.660057, 261.8275, 4154
18:00:01.660789, 261.83, 4103
18:00:01.660828, 261.8325, 4131
18:00:01.660848, 261.835, 4144
18:00:01.683650, 261.8375, 4122
18:00:01.683757, 261.84, 4109
18:00:01.683837, 261.8425, 4100
18:00:01.683880, 261.845, 4106
18:00:01.684531, 261.8475, 4099
18:00:01.684576, 261.85, 4185
18:00:01.684608, 261.8525, 4161
18:00:01.684638, 261.855, 4166
18:00:01.714652, 261.8575, 4170
18:00:01.714742, 261.86, 4174
18:00:01.714784, 261.8625, 4169
18:00:01.714819, 261.865, 3993
18:00:01.715666, 261.8675, 4151
18:00:01.715742, 261.87, 4155
18:00:01.715796, 261.8725, 4149
18:00:01.715847, 261.875, 4157
18:00:01.716754, 261.8775, 4170
18:00:01.716820, 261.88, 4175
18:00:01.716872, 261.8825, 4039
18:00:01.716923, 261.885, 4159
18:00:01.721815, 261.8875, 4169
18:00:01.721883, 261.89, 4167
18:00:01.721970, 261.8925, 4194
18:00:01.722052, 261.895, 4187
18:00:01.722137, 261.8975, 4194
18:00:01.748189, 261.9, 4154
18:00:01.748306, 261.9025, 4175
18:00:01.748368, 261.905, 4158
18:00:01.748439, 261.9075, 4170
18:00:01.749722, 261.91, 4176
18:00:01.749801, 261.9125, 4193
18:00:01.749863, 261.915, 4186
18:00:01.749932, 261.9175, 4145
18:00:01.751150, 261.92, 4169
18:00:01.751245, 261.9225, 4158
18:00:01.751330, 261.925, 4154
18:00:01.751416, 261.9275, 4197
18:00:01.756897, 261.93, 4235
18:00:01.757012, 261.9325, 4271
18:00:01.757086, 261.935, 4305
18:00:01.757158, 261.9375, 4402
18:00:01.778822, 261.94, 4415
18:00:01.778939, 261.9425, 4446
18:00:01.778995, 261.945, 4484
18:00:01.779060, 261.9475, 4467
18:00:01.782320, 261.95, 4334
18:00:01.782388, 261.9525, 4122
18:00:01.782435, 261.955, 3912
18:00:01.782477, 261.9575, 3594
18:00:01.791117, 261.96, 3270
18:00:01.791154, 261.9625, 2874
18:00:01.791178, 261.965, 2402
18:00:01.791201, 261.9675, 1905
18:00:01.819911, 261.97, 1647
18:00:01.819965, 261.9725, 1710
18:00:01.819993, 261.975, 1887
18:00:01.820014, 261.9775, 2498
18:00:01.820332, 261.98, 3428
18:00:01.820357, 261.9825, 4292
18:00:01.820372, 261.985, 4781
18:00:01.820386, 261.9875, 4914
18:00:01.820633, 261.99, 4917
18:00:01.820652, 261.9925, 4801
18:00:01.820666, 261.995, 4647
18:00:01.820680, 261.9975, 4573
18:00:01.826983, 262.0, 4562
18:00:01.827081, 262.0025, 4536
18:00:01.827129, 262.005, 4488
18:00:01.827175, 262.0075, 4534
18:00:01.852552, 262.01, 4525
18:00:01.852620, 262.0125, 4519
18:00:01.852689, 262.015, 4530
18:00:01.852718, 262.0175, 4534
18:00:01.853040, 262.02, 4521
18:00:01.853064, 262.0225, 4523
18:00:01.853080, 262.025, 4532
18:00:01.853094, 262.0275, 4487
18:00:01.853108, 262.03, 4470
18:00:01.861399, 262.0325, 4472
18:00:01.861466, 262.035, 4465
18:00:01.862376, 262.0375, 4443
18:00:01.862416, 262.04, 4413
18:00:01.886091, 262.0425, 4441
18:00:01.886137, 262.045, 4433
18:00:01.886159, 262.0475, 4398
18:00:01.886191, 262.05, 4426
18:00:01.886553, 262.0525, 4413
18:00:01.886574, 262.055, 4389
18:00:01.886589, 262.0575, 4367
18:00:01.886603, 262.06, 4379
18:00:01.918284, 262.0625, 4341
18:00:01.918343, 262.065, 4345
18:00:01.918366, 262.0675, 4336
18:00:01.918385, 262.07, 4322
18:00:01.918735, 262.0725, 4310
18:00:01.918760, 262.075, 4290
18:00:01.918776, 262.0775, 4315
18:00:01.918791, 262.08, 4299
18:00:01.918806, 262.0825, 4284
18:00:01.923113, 262.085, 4301
18:00:01.923148, 262.0875, 4282
18:00:01.923164, 262.09, 4272
18:00:01.923179, 262.0925, 4237
18:00:01.949684, 262.095, 4274
18:00:01.949741, 262.0975, 4306
18:00:01.949766, 262.1, 4283
18:00:01.949788, 262.1025, 4265
18:00:01.950159, 262.105, 4274
18:00:01.950183, 262.1075, 4269
18:00:01.950200, 262.11, 4117
18:00:01.950216, 262.1125, 4263
18:00:01.950506, 262.115, 4262
18:00:01.950528, 262.1175, 4241
18:00:01.950545, 262.12, 4248
18:00:01.950561, 262.1225, 4276
18:00:01.957431, 262.125, 4255
18:00:01.957532, 262.1275, 4191
18:00:01.957590, 262.13, 4227
18:00:01.957642, 262.1325, 4230
18:00:01.990855, 262.135, 4219
18:00:01.990930, 262.1375, 4199
18:00:01.991003, 262.14, 4193
18:00:01.991044, 262.1425, 4211
18:00:01.991314, 262.145, 4169
18:00:01.991333, 262.1475, 4212
18:00:01.991347, 262.15, 4216
18:00:01.991359, 262.1525, 4181
18:00:01.995087, 262.155, 4186
18:00:01.995174, 262.1575, 4188
18:00:01.995194, 262.16, 4211
18:00:01.995212, 262.1625, 4133
18:00:02.013900, 262.165, 4207
18:00:02.014006, 262.1675, 4187
18:00:02.014040, 262.17, 4181
18:00:02.014074, 262.1725, 4180
18:00:02.014626, 262.175, 4163
18:00:02.014666, 262.1775, 4184
18:00:02.014690, 262.18, 4067
18:00:02.014712, 262.1825, 4212
18:00:02.014735, 262.185, 4211
18:00:02.028573, 262.1875, 4200
18:00:02.028667, 262.19, 4214
18:00:02.028689, 262.1925, 4219
18:00:02.028711, 262.195, 4213
18:00:02.046232, 262.1975, 4174
18:00:02.046307, 262.2, 4201
18:00:02.046330, 262.2025, 4205
18:00:02.046350, 262.205, 4161
18:00:02.046760, 262.2075, 4209
18:00:02.046797, 262.21, 4199
18:00:02.046812, 262.2125, 4210
18:00:02.046828, 262.215, 4064
18:00:02.047282, 262.2175, 4230
18:00:02.047323, 262.22, 4229
18:00:02.047348, 262.2225, 4218
18:00:02.047371, 262.225, 4197
18:00:02.062687, 262.2275, 4203
18:00:02.062741, 262.23, 4184
18:00:02.062762, 262.2325, 4152
18:00:02.062781, 262.235, 4182
18:00:02.084157, 262.2375, 4184
18:00:02.084218, 262.24, 4175
18:00:02.084247, 262.2425, 4181
18:00:02.084272, 262.245, 4146
18:00:02.084711, 262.2475, 4120
18:00:02.084744, 262.25, 4071
18:00:02.084765, 262.2525, 4116
18:00:02.084783, 262.255, 4096
18:00:02.084802, 262.2575, 4079
18:00:02.116864, 262.26, 4084
18:00:02.116947, 262.2625, 4071
18:00:02.116971, 262.265, 4084
18:00:02.116991, 262.2675, 3902
18:00:02.117293, 262.27, 4058
18:00:02.117318, 262.2725, 4045
18:00:02.117334, 262.275, 4048
18:00:02.117348, 262.2775, 4080
18:00:02.117731, 262.28, 4099
18:00:02.117768, 262.2825, 4081
18:00:02.117791, 262.285, 4075
18:00:02.117814, 262.2875, 4109
18:00:02.123595, 262.29, 4111
18:00:02.123656, 262.2925, 4109
18:00:02.123693, 262.295, 4103
18:00:02.123727, 262.2975, 4174
18:00:02.150395, 262.3, 4161
18:00:02.150538, 262.3025, 4123
18:00:02.150585, 262.305, 4191
18:00:02.150616, 262.3075, 4184
18:00:02.151074, 262.31, 4158
18:00:02.151106, 262.3125, 4194
18:00:02.151128, 262.315, 4171
18:00:02.151150, 262.3175, 4197
18:00:02.151529, 262.32, 4147
18:00:02.151557, 262.3225, 4202
18:00:02.151579, 262.325, 4187
18:00:02.151600, 262.3275, 4172
18:00:02.158732, 262.33, 4196
18:00:02.158803, 262.3325, 4186
18:00:02.158857, 262.335, 4194
18:00:02.158928, 262.3375, 4159
18:00:02.182692, 262.34, 4189
18:00:02.182779, 262.3425, 4203
18:00:02.182805, 262.345, 4195
18:00:02.182825, 262.3475, 4221
18:00:02.183153, 262.35, 4235
18:00:02.183175, 262.3525, 4214
18:00:02.183191, 262.355, 4186
18:00:02.183206, 262.3575, 4206
18:00:02.193334, 262.36, 4191
18:00:02.193362, 262.3625, 4182
18:00:02.193377, 262.365, 4196
18:00:02.193391, 262.3675, 4211
18:00:02.215447, 262.37, 4202
18:00:02.215505, 262.3725, 4184
18:00:02.215529, 262.375, 4212
18:00:02.215549, 262.3775, 4193
18:00:02.215568, 262.38, 4182
18:00:02.215903, 262.3825, 4203
18:00:02.215924, 262.385, 4196
18:00:02.215940, 262.3875, 4183
18:00:02.215954, 262.39, 4151
18:00:02.220062, 262.3925, 4206
18:00:02.220139, 262.395, 4186
18:00:02.220182, 262.3975, 4173
18:00:02.220223, 262.4, 4187
18:00:02.229261, 262.4025, 4178
18:00:02.229318, 262.405, 4165
18:00:02.229338, 262.4075, 4147
18:00:02.229354, 262.41, 4184
18:00:02.249016, 262.4125, 4169
18:00:02.249073, 262.415, 4152
18:00:02.249096, 262.4175, 4200
18:00:02.249118, 262.42, 4184
18:00:02.254944, 262.4225, 4149
18:00:02.255006, 262.425, 4136
18:00:02.255041, 262.4275, 4165
18:00:02.255073, 262.43, 4152
18:00:02.264243, 262.4325, 4164
18:00:02.264300, 262.435, 4165
18:00:02.264330, 262.4375, 4157
18:00:02.264765, 262.44, 4163
18:00:02.286000, 262.4425, 4143
18:00:02.286046, 262.445, 4197
18:00:02.286069, 262.4475, 4196
18:00:02.286089, 262.45, 4167
18:00:02.286433, 262.4525, 4170
18:00:02.286460, 262.455, 4179
18:00:02.286476, 262.4575, 4170
18:00:02.286491, 262.46, 4138
18:00:02.286533, 262.4625, 4203
18:00:02.290097, 262.465, 4178
18:00:02.290188, 262.4675, 4141
18:00:02.290242, 262.47, 4170
18:00:02.290292, 262.4725, 4191
18:00:02.319509, 262.475, 4159
18:00:02.319567, 262.4775, 4132
18:00:02.319589, 262.48, 4171
18:00:02.319609, 262.4825, 4166
18:00:02.319950, 262.485, 4158
18:00:02.319976, 262.4875, 4165
18:00:02.319992, 262.49, 4165
18:00:02.320007, 262.4925, 4144
18:00:02.324800, 262.495, 4127
18:00:02.324863, 262.4975, 4162
18:00:02.324897, 262.5, 4145
18:00:02.324928, 262.5025, 4140
18:00:02.347573, 262.505, 4142
18:00:02.347670, 262.5075, 4170
18:00:02.347702, 262.51, 4180
18:00:02.347728, 262.5125, 4129
18:00:02.348382, 262.515, 4176
18:00:02.348439, 262.5175, 4169
18:00:02.348463, 262.52, 4174
18:00:02.348484, 262.5225, 4200
18:00:02.351179, 262.525, 4173
18:00:02.351232, 262.5275, 4185
18:00:02.351262, 262.53, 4153
18:00:02.351290, 262.5325, 4180
18:00:02.383419, 262.535, 4178
18:00:02.383505, 262.5375, 4168
18:00:02.383531, 262.54, 4165
18:00:02.383552, 262.5425, 4192
18:00:02.414894, 262.545, 4179
18:00:02.414966, 262.5475, 4168
18:00:02.415011, 262.55, 4181
18:00:02.415032, 262.5525, 4177
18:00:02.415077, 262.555, 4171
18:00:02.415372, 262.5575, 4181
18:00:02.415399, 262.56, 4187
18:00:02.415413, 262.5625, 4197
18:00:02.415427, 262.565, 4178
18:00:02.415674, 262.5675, 4179
18:00:02.415697, 262.57, 4174
18:00:02.415711, 262.5725, 4156
18:00:02.415726, 262.575, 4154
18:00:02.415987, 262.5775, 4172
18:00:02.416008, 262.58, 4163
18:00:02.416024, 262.5825, 4030
18:00:02.416039, 262.585, 4194
18:00:02.421382, 262.5875, 4195
18:00:02.421466, 262.59, 4170
18:00:02.421513, 262.5925, 4196
18:00:02.421557, 262.595, 4201
18:00:02.430426, 262.5975, 4192
18:00:02.430482, 262.6, 4138
18:00:02.430513, 262.6025, 4177
18:00:02.430541, 262.605, 4172
18:00:02.430569, 262.6075, 4137
18:00:02.460535, 262.61, 4172
18:00:02.460605, 262.6125, 4183
18:00:02.460635, 262.615, 4170
18:00:02.463884, 262.6175, 4152
18:00:02.463946, 262.62, 4169
18:00:02.463993, 262.6225, 4152
18:00:02.464027, 262.625, 4139
18:00:02.464161, 262.6275, 4169
18:00:02.483958, 262.63, 4151
18:00:02.484063, 262.6325, 4149
18:00:02.484126, 262.635, 4156
18:00:02.484160, 262.6375, 4159
18:00:02.484727, 262.64, 4157
18:00:02.484765, 262.6425, 4163
18:00:02.484788, 262.645, 4166
18:00:02.484810, 262.6475, 4192
18:00:02.485195, 262.65, 4162
18:00:02.485225, 262.6525, 4139
18:00:02.485246, 262.655, 4158
18:00:02.485268, 262.6575, 4175
18:00:02.491048, 262.66, 4155
18:00:02.491082, 262.6625, 4167
18:00:02.491102, 262.665, 4185
18:00:02.491121, 262.6675, 4145
18:00:02.518218, 262.67, 4115
18:00:02.518312, 262.6725, 4166
18:00:02.518386, 262.675, 4164
18:00:02.518420, 262.6775, 4149
18:00:02.518897, 262.68, 4180
18:00:02.518930, 262.6825, 4188
18:00:02.518955, 262.685, 4181
18:00:02.518982, 262.6875, 4140
18:00:02.519346, 262.69, 4166
18:00:02.519373, 262.6925, 4153
18:00:02.519394, 262.695, 4133
18:00:02.519415, 262.6975, 4154
18:00:02.526614, 262.7, 4141
18:00:02.526707, 262.7025, 4152
18:00:02.526763, 262.705, 4141
18:00:02.526815, 262.7075, 4179
18:00:02.550806, 262.71, 4145
18:00:02.550952, 262.7125, 4125
18:00:02.550987, 262.715, 4136
18:00:02.551017, 262.7175, 4134
18:00:02.552313, 262.72, 4146
18:00:02.552357, 262.7225, 4113
18:00:02.552379, 262.725, 4142
18:00:02.552399, 262.7275, 4175
18:00:02.552418, 262.73, 4152
18:00:02.561534, 262.7325, 4173
18:00:02.561634, 262.735, 4168
18:00:02.561690, 262.7375, 4171
18:00:02.561741, 262.74, 4145
18:00:02.583940, 262.7425, 4182
18:00:02.583997, 262.745, 4151
18:00:02.584018, 262.7475, 4163
18:00:02.584068, 262.75, 4155
18:00:02.584415, 262.7525, 4156
18:00:02.584438, 262.755, 4158
18:00:02.584453, 262.7575, 4115
18:00:02.584468, 262.76, 4151
18:00:02.587200, 262.7625, 4162
18:00:02.587221, 262.765, 4149
18:00:02.587235, 262.7675, 4142
18:00:02.587249, 262.77, 4151
18:00:02.618284, 262.7725, 4167
18:00:02.618367, 262.775, 4150
18:00:02.618390, 262.7775, 4207
18:00:02.618409, 262.78, 4168
18:00:02.618703, 262.7825, 4155
18:00:02.618724, 262.785, 4164
18:00:02.618739, 262.7875, 4166
18:00:02.618753, 262.79, 4158
18:00:02.622568, 262.7925, 4147
18:00:02.622630, 262.795, 4163
18:00:02.622667, 262.7975, 4166
18:00:02.622702, 262.8, 4166
18:00:02.631371, 262.8025, 4184
18:00:02.631420, 262.805, 4176
18:00:02.631439, 262.8075, 4165
18:00:02.631457, 262.81, 4159
18:00:02.651757, 262.8125, 4175
18:00:02.651815, 262.815, 4171
18:00:02.651846, 262.8175, 4155
18:00:02.651869, 262.82, 4180
18:00:02.651890, 262.8225, 4190
18:00:02.652230, 262.825, 4175
18:00:02.652254, 262.8275, 4144
18:00:02.652269, 262.83, 4185
18:00:02.652284, 262.8325, 4173
18:00:02.682566, 262.835, 4159
18:00:02.682655, 262.8375, 4172
18:00:02.682679, 262.84, 4192
18:00:02.682700, 262.8425, 4187
18:00:02.683233, 262.845, 4160
18:00:02.683282, 262.8475, 4177
18:00:02.683305, 262.85, 4180
18:00:02.683327, 262.8525, 4153
18:00:02.683726, 262.855, 4177
18:00:02.683762, 262.8575, 4173
18:00:02.683800, 262.86, 4175
18:00:02.683824, 262.8625, 4131
18:00:02.692847, 262.865, 4197
18:00:02.692943, 262.8675, 4194
18:00:02.692996, 262.87, 4166
18:00:02.693046, 262.8725, 4182
18:00:02.717375, 262.875, 4177
18:00:02.717482, 262.8775, 4165
18:00:02.717506, 262.88, 4121
18:00:02.717526, 262.8825, 4178
18:00:02.718229, 262.885, 4168
18:00:02.718259, 262.8875, 4151
18:00:02.718274, 262.89, 4178
18:00:02.718289, 262.8925, 4173
18:00:02.718304, 262.895, 4201
18:00:02.727730, 262.8975, 4170
18:00:02.727818, 262.9, 4160
18:00:02.727875, 262.9025, 4162
18:00:02.727926, 262.905, 4161
18:00:02.753722, 262.9075, 4168
18:00:02.753782, 262.91, 4160
18:00:02.753802, 262.9125, 4142
18:00:02.753821, 262.915, 4118
18:00:02.754136, 262.9175, 4168
18:00:02.754156, 262.92, 4157
18:00:02.754171, 262.9225, 4130
18:00:02.754184, 262.925, 4132
18:00:02.754425, 262.9275, 4136
18:00:02.754443, 262.93, 4143
18:00:02.754457, 262.9325, 4116
18:00:02.754470, 262.935, 4163
18:00:02.763253, 262.9375, 4158
18:00:02.763384, 262.94, 4172
18:00:02.763484, 262.9425, 4162
18:00:02.763576, 262.945, 4148
18:00:02.784464, 262.9475, 4152
18:00:02.784530, 262.95, 4145
18:00:02.784553, 262.9525, 4177
18:00:02.784576, 262.955, 4169
18:00:02.788350, 262.9575, 4146
18:00:02.788383, 262.96, 4166
18:00:02.788399, 262.9625, 4173
18:00:02.788414, 262.965, 4160
18:00:02.797622, 262.9675, 4123
18:00:02.797690, 262.97, 4171
18:00:02.797723, 262.9725, 4177
18:00:02.797752, 262.975, 4175
18:00:02.821045, 262.9775, 4191
18:00:02.821103, 262.98, 4180
18:00:02.821139, 262.9825, 4172
18:00:02.821160, 262.985, 4112
18:00:02.821178, 262.9875, 4132
18:00:02.821496, 262.99, 4125
18:00:02.821520, 262.9925, 4102
18:00:02.821534, 262.995, 4113
18:00:02.821548, 262.9975, 4091
18:00:02.833092, 263.0, 4099
18:00:02.833146, 263.0025, 4101
18:00:02.833169, 263.005, 4151
18:00:02.833187, 263.0075, 4133
18:00:02.852306, 263.01, 4121
18:00:02.852401, 263.0125, 4142
18:00:02.852426, 263.015, 4157
18:00:02.852446, 263.0175, 4155
18:00:02.852766, 263.02, 4139
18:00:02.852786, 263.0225, 4185
18:00:02.852800, 263.025, 4204
18:00:02.852814, 263.0275, 4176
18:00:02.858895, 263.03, 4191
18:00:02.859001, 263.0325, 4191
18:00:02.859049, 263.035, 4200
18:00:02.859092, 263.0375, 4152
18:00:02.884103, 263.04, 4169
18:00:02.884196, 263.0425, 4179
18:00:02.884221, 263.045, 4184
18:00:02.884243, 263.0475, 4178
18:00:02.884633, 263.05, 4184
18:00:02.884672, 263.0525, 4198
18:00:02.884689, 263.055, 4141
18:00:02.884705, 263.0575, 4188
18:00:02.893875, 263.06, 4187
18:00:02.893957, 263.0625, 4165
18:00:02.894007, 263.065, 4187
18:00:02.894053, 263.0675, 4186
18:00:02.894098, 263.07, 4193
18:00:02.917444, 263.0725, 4167
18:00:02.917551, 263.075, 4170
18:00:02.917626, 263.0775, 4164
18:00:02.917651, 263.08, 4162
18:00:02.917988, 263.0825, 4198
18:00:02.918021, 263.085, 4198
18:00:02.918038, 263.0875, 4203
18:00:02.918052, 263.09, 4189
18:00:02.919596, 263.0925, 4312
18:00:02.919640, 263.095, 4389
18:00:02.919655, 263.0975, 4381
18:00:02.919670, 263.1, 4455
18:00:02.928336, 263.1025, 4468
18:00:02.928364, 263.105, 4452
18:00:02.928379, 263.1075, 4315
18:00:02.928393, 263.11, 4181
18:00:02.955068, 263.1125, 3960
18:00:02.955137, 263.115, 3640
18:00:02.955174, 263.1175, 3377
18:00:02.955234, 263.12, 3027
18:00:02.966176, 263.1225, 2607
18:00:02.966222, 263.125, 2129
18:00:02.966243, 263.1275, 1913
18:00:02.966283, 263.13, 1828
18:00:02.966930, 263.1325, 1994
18:00:02.966968, 263.135, 2445
18:00:02.966989, 263.1375, 3221
18:00:02.967007, 263.14, 4127
18:00:02.987599, 263.1425, 4657
18:00:02.987663, 263.145, 4946
18:00:02.987686, 263.1475, 4994
18:00:02.987708, 263.15, 4911
18:00:02.987769, 263.1525, 4749
18:00:02.988075, 263.155, 4642
18:00:02.988097, 263.1575, 4556
18:00:02.988113, 263.16, 4482
18:00:02.988128, 263.1625, 4516
18:00:02.989720, 263.165, 4489
18:00:02.989786, 263.1675, 4486
18:00:02.989803, 263.17, 4497
18:00:02.989818, 263.1725, 4518
18:00:03.018638, 263.175, 4512
18:00:03.018729, 263.1775, 4473
18:00:03.018758, 263.18, 4487
18:00:03.018779, 263.1825, 4501
18:00:03.019314, 263.185, 4474
18:00:03.019360, 263.1875, 4511
18:00:03.019384, 263.19, 4518
18:00:03.019407, 263.1925, 4462
18:00:03.025402, 263.195, 4411
18:00:03.025521, 263.1975, 4452
18:00:03.025585, 263.2, 4450
18:00:03.025638, 263.2025, 4408
18:00:03.033935, 263.205, 4409
18:00:03.033995, 263.2075, 4434
18:00:03.034018, 263.21, 4410
18:00:03.034035, 263.2125, 4348
18:00:03.051964, 263.215, 4390
18:00:03.052058, 263.2175, 4386
18:00:03.052083, 263.22, 4364
18:00:03.052110, 263.2225, 4380
18:00:03.052520, 263.225, 4369
18:00:03.052556, 263.2275, 4349
18:00:03.052573, 263.23, 4317
18:00:03.052588, 263.2325, 4343
18:00:03.052603, 263.235, 4333
18:00:03.086598, 263.2375, 4303
18:00:03.086675, 263.24, 4317
18:00:03.086721, 263.2425, 4271
18:00:03.086744, 263.245, 4282
18:00:03.087179, 263.2475, 4239
18:00:03.087214, 263.25, 4290
18:00:03.087233, 263.2525, 4281
18:00:03.087249, 263.255, 4255
18:00:03.087523, 263.2575, 4259
18:00:03.087543, 263.26, 4273
18:00:03.087558, 263.2625, 4247
18:00:03.087573, 263.265, 4208
18:00:03.094615, 263.2675, 4232
18:00:03.094653, 263.27, 4215
18:00:03.094677, 263.2725, 4218
18:00:03.094698, 263.275, 4222
18:00:03.122814, 263.2775, 4231
18:00:03.122898, 263.28, 4212
18:00:03.122928, 263.2825, 4175
18:00:03.122950, 263.285, 4212
18:00:03.123326, 263.2875, 4216
18:00:03.123351, 263.29, 4189
18:00:03.123368, 263.2925, 4207
18:00:03.123384, 263.295, 4192
18:00:03.129617, 263.2975, 4197
18:00:03.129647, 263.3, 4085
18:00:03.129665, 263.3025, 4243
18:00:03.129682, 263.305, 4220
18:00:03.129698, 263.3075, 4183
18:00:03.154148, 263.31, 4197
18:00:03.154229, 263.3125, 4188
18:00:03.154265, 263.315, 4185
18:00:03.154358, 263.3175, 4156
18:00:03.154802, 263.32, 4203
18:00:03.154856, 263.3225, 4214
18:00:03.154884, 263.325, 4186
18:00:03.154907, 263.3275, 4179
18:00:03.156081, 263.33, 4183
18:00:03.156109, 263.3325, 4189
18:00:03.156131, 263.335, 4166
18:00:03.156152, 263.3375, 4191
18:00:03.164794, 263.34, 4188
18:00:03.164858, 263.3425, 4187
18:00:03.164889, 263.345, 4212
18:00:03.164914, 263.3475, 4191
18:00:03.185342, 263.35, 4177
18:00:03.185435, 263.3525, 4133
18:00:03.185462, 263.355, 4175
18:00:03.185483, 263.3575, 4178
18:00:03.191161, 263.36, 4172
18:00:03.191216, 263.3625, 4190
18:00:03.191243, 263.365, 4166
18:00:03.191268, 263.3675, 4180
18:00:03.200805, 263.37, 4137
18:00:03.200864, 263.3725, 4182
18:00:03.200898, 263.375, 4176
18:00:03.200919, 263.3775, 4177
18:00:03.221345, 263.38, 4182
18:00:03.221408, 263.3825, 4190
18:00:03.221433, 263.385, 4195
18:00:03.221453, 263.3875, 4153
18:00:03.221473, 263.39, 4168
18:00:03.221853, 263.3925, 4159
18:00:03.221876, 263.395, 4149
18:00:03.221892, 263.3975, 4170
18:00:03.221907, 263.4, 4185
18:00:03.226225, 263.4025, 4179
18:00:03.226290, 263.405, 4114
18:00:03.226320, 263.4075, 4129
18:00:03.226344, 263.41, 4124
18:00:03.257087, 263.4125, 4115
18:00:03.257169, 263.415, 4126
18:00:03.257197, 263.4175, 4130
18:00:03.257219, 263.42, 4130
18:00:03.257613, 263.4225, 4126
18:00:03.257640, 263.425, 4128
18:00:03.257658, 263.4275, 4112
18:00:03.257675, 263.43, 4080
18:00:03.260954, 263.4325, 4130
18:00:03.261022, 263.435, 4128
18:00:03.261068, 263.4375, 4167
18:00:03.261109, 263.44, 4133
18:00:03.290269, 263.4425, 4169
18:00:03.290339, 263.445, 4161
18:00:03.290400, 263.4475, 4153
18:00:03.290425, 263.45, 4167
18:00:03.290755, 263.4525, 4166
18:00:03.290778, 263.455, 4167
18:00:03.290794, 263.4575, 4140
18:00:03.290809, 263.46, 4184
18:00:03.291105, 263.4625, 4207
18:00:03.291127, 263.465, 4210
18:00:03.291143, 263.4675, 4215
18:00:03.291158, 263.47, 4222
18:00:03.321646, 263.4725, 4214
18:00:03.321745, 263.475, 4194
18:00:03.321785, 263.4775, 4230
18:00:03.321819, 263.48, 4235
18:00:03.321902, 263.4825, 4247
18:00:03.322455, 263.485, 4265
18:00:03.322502, 263.4875, 4255
18:00:03.322529, 263.49, 4262
18:00:03.322554, 263.4925, 4250
18:00:03.333079, 263.495, 4278
18:00:03.333120, 263.4975, 4251
18:00:03.333140, 263.5, 4238
18:00:03.333158, 263.5025, 4230
18:00:03.335057, 263.505, 4241
18:00:03.335119, 263.5075, 4239
18:00:03.335139, 263.51, 4199
18:00:03.335200, 263.5125, 4259
18:00:03.353776, 263.515, 4240
18:00:03.353870, 263.5175, 4237
18:00:03.353897, 263.52, 4225
18:00:03.353919, 263.5225, 4243
18:00:03.357400, 263.525, 4236
18:00:03.357452, 263.5275, 4171
18:00:03.357484, 263.53, 4214
18:00:03.357512, 263.5325, 4208
18:00:03.366282, 263.535, 4188
18:00:03.366356, 263.5375, 4198
18:00:03.366400, 263.54, 4210
18:00:03.366441, 263.5425, 4216
18:00:03.389633, 263.545, 4169
18:00:03.389689, 263.5475, 4204
18:00:03.389712, 263.55, 4190
18:00:03.389732, 263.5525, 4159
18:00:03.390055, 263.555, 4178
18:00:03.390077, 263.5575, 4188
18:00:03.390092, 263.56, 4188
18:00:03.390107, 263.5625, 4154
18:00:03.392201, 263.565, 4210
18:00:03.392223, 263.5675, 4199
18:00:03.392238, 263.57, 4183
18:00:03.392252, 263.5725, 4198
18:00:03.401679, 263.575, 4189
18:00:03.401720, 263.5775, 4184
18:00:03.401739, 263.58, 4147
18:00:03.401758, 263.5825, 4193
18:00:03.423396, 263.585, 4187
18:00:03.423453, 263.5875, 4189
18:00:03.423475, 263.59, 4212
18:00:03.423494, 263.5925, 4198
18:00:03.427259, 263.595, 4225
18:00:03.427358, 263.5975, 4197
18:00:03.427422, 263.6, 4220
18:00:03.427474, 263.6025, 4201
18:00:03.427526, 263.605, 4178
18:00:03.436044, 263.6075, 4173
18:00:03.436109, 263.61, 4176
18:00:03.436131, 263.6125, 4167
18:00:03.436153, 263.615, 4118
18:00:03.456760, 263.6175, 4169
18:00:03.456846, 263.62, 4173
18:00:03.456872, 263.6225, 4175
18:00:03.456892, 263.625, 4190
18:00:03.457200, 263.6275, 4192
18:00:03.457221, 263.63, 4172
18:00:03.457237, 263.6325, 4138
18:00:03.457251, 263.635, 4183
18:00:03.462735, 263.6375, 4172
18:00:03.462829, 263.64, 4182
18:00:03.462960, 263.6425, 4211
18:00:03.462993, 263.645, 4192
18:00:03.486688, 263.6475, 4182
18:00:03.486764, 263.65, 4126
18:00:03.486787, 263.6525, 4178
18:00:03.486808, 263.655, 4188
18:00:03.488754, 263.6575, 4179
18:00:03.488800, 263.66, 4190
18:00:03.488825, 263.6625, 4202
18:00:03.488847, 263.665, 4185
18:00:03.497834, 263.6675, 4151
18:00:03.497924, 263.67, 4194
18:00:03.497980, 263.6725, 4200
18:00:03.498031, 263.675, 4194
18:00:03.527542, 263.6775, 4214
18:00:03.527614, 263.68, 4193
18:00:03.527665, 263.6825, 4204
18:00:03.527709, 263.685, 4160
18:00:03.527976, 263.6875, 4210
18:00:03.527995, 263.69, 4170
18:00:03.528008, 263.6925, 4162
18:00:03.528021, 263.695, 4185
18:00:03.528034, 263.6975, 4208
18:00:03.528261, 263.7, 4174
18:00:03.528278, 263.7025, 4144
18:00:03.528291, 263.705, 4190
18:00:03.528304, 263.7075, 4186
18:00:03.558608, 263.71, 4160
18:00:03.558668, 263.7125, 4158
18:00:03.558704, 263.715, 4179
18:00:03.558740, 263.7175, 4147
18:00:03.559221, 263.72, 4144
18:00:03.559248, 263.7225, 4158
18:00:03.559268, 263.725, 4169
18:00:03.559287, 263.7275, 4154
18:00:03.559619, 263.73, 4180
18:00:03.559643, 263.7325, 4171
18:00:03.559662, 263.735, 4152
18:00:03.559681, 263.7375, 4134
18:00:03.567812, 263.74, 4196
18:00:03.567880, 263.7425, 4196
18:00:03.567902, 263.745, 4146
18:00:03.567941, 263.7475, 4178
18:00:03.592154, 263.75, 4174
18:00:03.592214, 263.7525, 4182
18:00:03.592238, 263.755, 4170
18:00:03.592259, 263.7575, 4199
18:00:03.593497, 263.76, 4192
18:00:03.593535, 263.7625, 4184
18:00:03.593559, 263.765, 4173
18:00:03.593581, 263.7675, 4177
18:00:03.593604, 263.77, 4159
18:00:03.603608, 263.7725, 4138
18:00:03.603780, 263.775, 4155
18:00:03.603840, 263.7775, 4141
18:00:03.603893, 263.78, 4114
18:00:03.624326, 263.7825, 4141
18:00:03.624398, 263.785, 4170
18:00:03.624433, 263.7875, 4152
18:00:03.624458, 263.79, 4129
18:00:03.624802, 263.7925, 4186
18:00:03.624824, 263.795, 4172
18:00:03.624839, 263.7975, 4159
18:00:03.624852, 263.8, 4166
18:00:03.628773, 263.8025, 4157
18:00:03.628839, 263.805, 4165
18:00:03.628879, 263.8075, 4150
18:00:03.628917, 263.81, 4205
18:00:03.663569, 263.8125, 4175
18:00:03.663654, 263.815, 4151
18:00:03.663731, 263.8175, 4176
18:00:03.663779, 263.82, 4169
18:00:03.664149, 263.8225, 4167
18:00:03.664181, 263.825, 4178
18:00:03.664199, 263.8275, 4190
18:00:03.664214, 263.83, 4166
18:00:03.664228, 263.8325, 4156
18:00:03.664480, 263.835, 4179
18:00:03.664499, 263.8375, 4206
18:00:03.664513, 263.84, 4188
18:00:03.664527, 263.8425, 4149
18:00:03.696709, 263.845, 4180
18:00:03.696772, 263.8475, 4166
18:00:03.696797, 263.85, 4150
18:00:03.696818, 263.8525, 4169
18:00:03.697505, 263.855, 4181
18:00:03.697625, 263.8575, 4188
18:00:03.697691, 263.86, 4146
18:00:03.697748, 263.8625, 4198
18:00:03.698670, 263.865, 4173
18:00:03.698740, 263.8675, 4143
18:00:03.698794, 263.87, 4148
18:00:03.698870, 263.8725, 4168
18:00:03.725102, 263.875, 4184
18:00:03.725173, 263.8775, 4136
18:00:03.725196, 263.88, 4205
18:00:03.725232, 263.8825, 4183
18:00:03.725625, 263.885, 4166
18:00:03.725656, 263.8875, 4187
18:00:03.725672, 263.89, 4185
18:00:03.725686, 263.8925, 4170
18:00:03.725940, 263.895, 4149
18:00:03.725960, 263.8975, 4184
18:00:03.725974, 263.9, 4197
18:00:03.725988, 263.9025, 4180
18:00:03.733973, 263.905, 4196
18:00:03.734061, 263.9075, 4184
18:00:03.734116, 263.91, 4186
18:00:03.734166, 263.9125, 4148
18:00:03.734217, 263.915, 4189
18:00:03.761711, 263.9175, 4175
18:00:03.761792, 263.92, 4157
18:00:03.761819, 263.9225, 4177
18:00:03.761841, 263.925, 4173
18:00:03.762157, 263.9275, 4170
18:00:03.762182, 263.93, 4142
18:00:03.762198, 263.9325, 4182
18:00:03.762213, 263.935, 4183
18:00:03.768864, 263.9375, 4185
18:00:03.768957, 263.94, 4187
18:00:03.769010, 263.9425, 4188
18:00:03.769062, 263.945, 4170
18:00:03.791868, 263.9475, 4148
18:00:03.791937, 263.95, 4156
18:00:03.791962, 263.9525, 4143
18:00:03.791982, 263.955, 4161
18:00:03.792341, 263.9575, 4189
18:00:03.792364, 263.96, 4171
18:00:03.792379, 263.9625, 4176
18:00:03.792394, 263.965, 4132
18:00:03.794726, 263.9675, 4188
18:00:03.794766, 263.97, 4166
18:00:03.794791, 263.9725, 4148
18:00:03.794814, 263.975, 4174
18:00:03.804563, 263.9775, 4178
18:00:03.804657, 263.98, 4164
18:00:03.804741, 263.9825, 4134
18:00:03.804798, 263.985, 4175
18:00:03.821791, 263.9875, 4181
18:00:03.821868, 263.99, 4173
18:00:03.821894, 263.9925, 4181
18:00:03.821914, 263.995, 4161
18:00:03.829805, 263.9975, 4147
18:00:03.829863, 264.0, 4101
18:00:03.829891, 264.0025, 4142
18:00:03.829915, 264.005, 4094
18:00:03.839601, 264.0075, 4099
18:00:03.839667, 264.01, 4136
18:00:03.839688, 264.0125, 4141
18:00:03.839705, 264.015, 4152
18:00:03.839723, 264.0175, 4114
18:00:03.866942, 264.02, 4184
18:00:03.866998, 264.0225, 4181
18:00:03.867069, 264.025, 4178
18:00:03.867115, 264.0275, 4178
18:00:03.867457, 264.03, 4168
18:00:03.867488, 264.0325, 4174
18:00:03.867504, 264.035, 4143
18:00:03.867518, 264.0375, 4174
18:00:03.868457, 264.04, 4199
18:00:03.868524, 264.0425, 4159
18:00:03.868570, 264.045, 4175
18:00:03.868615, 264.0475, 4163
18:00:03.897271, 264.05, 4176
18:00:03.897326, 264.0525, 4151
18:00:03.897353, 264.055, 4176
18:00:03.897372, 264.0575, 4161
18:00:03.897730, 264.06, 4176
18:00:03.897757, 264.0625, 4177
18:00:03.897773, 264.065, 4182
18:00:03.897787, 264.0675, 4166
18:00:03.899444, 264.07, 4133
18:00:03.899471, 264.0725, 4157
18:00:03.899488, 264.075, 4156
18:00:03.899502, 264.0775, 4145
18:00:03.934686, 264.08, 4153
18:00:03.934738, 264.0825, 4170
18:00:03.934771, 264.085, 4154
18:00:03.934802, 264.0875, 4113
18:00:03.935246, 264.09, 4165
18:00:03.935298, 264.0925, 4168
18:00:03.935324, 264.095, 4185
18:00:03.935350, 264.0975, 4239
18:00:03.936092, 264.1, 4319
18:00:03.936233, 264.1025, 4390
18:00:03.936294, 264.105, 4367
18:00:03.936346, 264.1075, 4450
18:00:03.968347, 264.11, 4482
18:00:03.968409, 264.1125, 4430
18:00:03.968431, 264.115, 4285
18:00:03.968463, 264.1175, 4068
18:00:03.968858, 264.12, 3811
18:00:03.968883, 264.1225, 3504
18:00:03.968900, 264.125, 3243
18:00:03.968915, 264.1275, 2858
18:00:03.968930, 264.13, 2356
18:00:03.969204, 264.1325, 1972
18:00:03.969289, 264.135, 1779
18:00:03.969354, 264.1375, 1801
18:00:03.969377, 264.14, 2009
18:00:03.969906, 264.1425, 2623
18:00:03.969989, 264.145, 3551
18:00:03.970013, 264.1475, 4428
18:00:03.970035, 264.15, 4880
18:00:04.000223, 264.1525, 5040
18:00:04.000296, 264.155, 5001
18:00:04.000317, 264.1575, 4843
18:00:04.000336, 264.16, 4730
18:00:04.000709, 264.1625, 4637
18:00:04.000734, 264.165, 4560
18:00:04.000749, 264.1675, 4550
18:00:04.000763, 264.17, 4496
18:00:04.005444, 264.1725, 4489
18:00:04.005523, 264.175, 4462
18:00:04.005549, 264.1775, 4513
18:00:04.005598, 264.18, 4496
18:00:04.034023, 264.1825, 4524
18:00:04.034144, 264.185, 4517
18:00:04.034190, 264.1875, 4495
18:00:04.034219, 264.19, 4493
18:00:04.034472, 264.1925, 4444
18:00:04.034492, 264.195, 4465
18:00:04.034506, 264.1975, 4457
18:00:04.034520, 264.2, 4459
18:00:04.034761, 264.2025, 4434
18:00:04.034779, 264.205, 4413
18:00:04.034794, 264.2075, 4381
18:00:04.034807, 264.21, 4360
18:00:04.064125, 264.2125, 4392
18:00:04.064186, 264.215, 4384
18:00:04.064213, 264.2175, 4336
18:00:04.064234, 264.22, 4346
18:00:04.064297, 264.2225, 4364
18:00:04.064613, 264.225, 4353
18:00:04.064637, 264.2275, 4295
18:00:04.064652, 264.23, 4329
18:00:04.064666, 264.2325, 4318
18:00:04.065830, 264.235, 4335
18:00:04.065852, 264.2375, 4322
18:00:04.065867, 264.24, 4322
18:00:04.065882, 264.2425, 4318
18:00:04.102078, 264.245, 4280
18:00:04.102138, 264.2475, 4307
18:00:04.102202, 264.25, 4292
18:00:04.102251, 264.2525, 4279
18:00:04.102528, 264.255, 4276
18:00:04.102548, 264.2575, 4280
18:00:04.102563, 264.26, 4284
18:00:04.102577, 264.2625, 4231
18:00:04.102838, 264.265, 4253
18:00:04.102877, 264.2675, 4230
18:00:04.102892, 264.27, 4202
18:00:04.102906, 264.2725, 4224
18:00:04.103143, 264.275, 4238
18:00:04.103160, 264.2775, 4235
18:00:04.103174, 264.28, 4213
18:00:04.103187, 264.2825, 4276
18:00:04.124372, 264.285, 4262
18:00:04.124472, 264.2875, 4246
18:00:04.124506, 264.29, 4239
18:00:04.124550, 264.2925, 4208
18:00:04.127226, 264.295, 4194
18:00:04.127273, 264.2975, 4185
18:00:04.127296, 264.3, 4197
18:00:04.127317, 264.3025, 4183
18:00:04.127337, 264.305, 4213
18:00:04.135799, 264.3075, 4218
18:00:04.135822, 264.31, 4222
18:00:04.135835, 264.3125, 4220
18:00:04.135848, 264.315, 4162
18:00:04.160918, 264.3175, 4219
18:00:04.160976, 264.32, 4211
18:00:04.161000, 264.3225, 4186
18:00:04.161020, 264.325, 4222
18:00:04.161368, 264.3275, 4199
18:00:04.161394, 264.33, 4186
18:00:04.161409, 264.3325, 4166
18:00:04.161423, 264.335, 4188
18:00:04.162182, 264.3375, 4196
18:00:04.162201, 264.34, 4174
18:00:04.162216, 264.3425, 4213
18:00:04.162229, 264.345, 4200
18:00:04.191345, 264.3475, 4185
18:00:04.191433, 264.35, 4139
18:00:04.191457, 264.3525, 4180
18:00:04.191477, 264.355, 4197
18:00:04.191848, 264.3575, 4179
18:00:04.191880, 264.36, 4199
18:00:04.191896, 264.3625, 4201
18:00:04.191910, 264.365, 4199
18:00:04.197882, 264.3675, 4184
18:00:04.198018, 264.37, 4199
18:00:04.198130, 264.3725, 4192
18:00:04.198199, 264.375, 4156
18:00:04.198251, 264.3775, 4198
18:00:04.206739, 264.38, 4185
18:00:04.206820, 264.3825, 4204
18:00:04.206884, 264.385, 4152
18:00:04.206932, 264.3875, 4191
18:00:04.228523, 264.39, 4178
18:00:04.228598, 264.3925, 4155
18:00:04.228622, 264.395, 4175
18:00:04.228643, 264.3975, 4135
18:00:04.232742, 264.4, 4154
18:00:04.232832, 264.4025, 4129
18:00:04.232889, 264.405, 4170
18:00:04.232941, 264.4075, 4164
18:00:04.258164, 264.41, 4152
18:00:04.258285, 264.4125, 4145
18:00:04.258342, 264.415, 4131
18:00:04.258374, 264.4175, 4102
18:00:04.259012, 264.42, 4069
18:00:04.259061, 264.4225, 4092
18:00:04.259083, 264.425, 4100
18:00:04.259103, 264.4275, 4089
18:00:04.259512, 264.43, 4100
18:00:04.259549, 264.4325, 4097
18:00:04.259570, 264.435, 4113
18:00:04.259591, 264.4375, 4078
18:00:04.267243, 264.44, 4127
18:00:04.267272, 264.4425, 4103
18:00:04.267288, 264.445, 4114
18:00:04.267302, 264.4475, 4138
18:00:04.291692, 264.45, 4155
18:00:04.291817, 264.4525, 4189
18:00:04.291856, 264.455, 4154
18:00:04.291890, 264.4575, 4189
18:00:04.293718, 264.46, 4183
18:00:04.293763, 264.4625, 4175
18:00:04.293787, 264.465, 4168
18:00:04.293809, 264.4675, 4184
18:00:04.293831, 264.47, 4179
18:00:04.302837, 264.4725, 4184
18:00:04.302973, 264.475, 4226
18:00:04.303031, 264.4775, 4194
18:00:04.303094, 264.48, 4203
18:00:04.324439, 264.4825, 4221
18:00:04.324505, 264.485, 4233
18:00:04.324531, 264.4875, 4225
18:00:04.324551, 264.49, 4201
18:00:04.324909, 264.4925, 4256
18:00:04.324939, 264.495, 4243
18:00:04.324955, 264.4975, 4244
18:00:04.324969, 264.5, 4253
18:00:04.328496, 264.5025, 4253
18:00:04.328547, 264.505, 4236
18:00:04.328573, 264.5075, 4183
18:00:04.328597, 264.51, 4222
18:00:04.363047, 264.5125, 4228
18:00:04.363143, 264.515, 4217
18:00:04.363185, 264.5175, 4243
18:00:04.363243, 264.52, 4234
18:00:04.363731, 264.5225, 4211
18:00:04.363767, 264.525, 4202
18:00:04.363797, 264.5275, 4183
18:00:04.363826, 264.53, 4204
18:00:04.363855, 264.5325, 4203
18:00:04.364313, 264.535, 4212
18:00:04.364348, 264.5375, 4198
18:00:04.364376, 264.54, 4191
18:00:04.391783, 264.5425, 4157
18:00:04.391882, 264.545, 4220
18:00:04.391927, 264.5475, 4210
18:00:04.391964, 264.55, 4178
18:00:04.392003, 264.5525, 4166
18:00:04.392650, 264.555, 4178
18:00:04.392706, 264.5575, 4178
18:00:04.392739, 264.56, 4132
18:00:04.392769, 264.5625, 4182
18:00:04.393263, 264.565, 4157
18:00:04.393302, 264.5675, 4143
18:00:04.393331, 264.57, 4164
18:00:04.393357, 264.5725, 4157
18:00:04.425526, 264.575, 4147
18:00:04.425645, 264.5775, 4135
18:00:04.425680, 264.58, 4182
18:00:04.425710, 264.5825, 4191
18:00:04.426160, 264.585, 4186
18:00:04.426197, 264.5875, 4203
18:00:04.426213, 264.59, 4192
18:00:04.426227, 264.5925, 4183
18:00:04.426503, 264.595, 4166
18:00:04.426530, 264.5975, 4204
18:00:04.426545, 264.6, 4186
18:00:04.426559, 264.6025, 4187
18:00:04.433997, 264.605, 4183
18:00:04.434099, 264.6075, 4175
18:00:04.434154, 264.61, 4189
18:00:04.434206, 264.6125, 4127
18:00:04.459599, 264.615, 4178
18:00:04.459682, 264.6175, 4194
18:00:04.459701, 264.62, 4143
18:00:04.459717, 264.6225, 4165
18:00:04.460013, 264.625, 4183
18:00:04.460040, 264.6275, 4155
18:00:04.460055, 264.63, 4119
18:00:04.460069, 264.6325, 4154
18:00:04.468856, 264.635, 4153
18:00:04.468962, 264.6375, 4149
18:00:04.469017, 264.64, 4191
18:00:04.469068, 264.6425, 4179
18:00:04.493333, 264.645, 4180
18:00:04.493460, 264.6475, 4148
18:00:04.493489, 264.65, 4153
18:00:04.493513, 264.6525, 4156
18:00:04.493535, 264.655, 4142
18:00:04.493826, 264.6575, 4183
18:00:04.493849, 264.66, 4153
18:00:04.493864, 264.6625, 4184
18:00:04.493879, 264.665, 4135
18:00:04.494827, 264.6675, 4183
18:00:04.494870, 264.67, 4160
18:00:04.494887, 264.6725, 4131
18:00:04.494916, 264.675, 4148
18:00:04.503869, 264.6775, 4167
18:00:04.503954, 264.68, 4152
18:00:04.504004, 264.6825, 4122
18:00:04.504051, 264.685, 4142
18:00:04.528174, 264.6875, 4134
18:00:04.528267, 264.69, 4126
18:00:04.528293, 264.6925, 4144
18:00:04.528312, 264.695, 4150
18:00:04.529570, 264.6975, 4156
18:00:04.529591, 264.7, 4129
18:00:04.529606, 264.7025, 4148
18:00:04.529620, 264.705, 4167
18:00:04.538903, 264.7075, 4146
18:00:04.539001, 264.71, 4159
18:00:04.539053, 264.7125, 4171
18:00:04.539098, 264.715, 4172
18:00:04.561860, 264.7175, 4128
18:00:04.561931, 264.72, 4159
18:00:04.561956, 264.7225, 4185
18:00:04.561976, 264.725, 4148
18:00:04.561995, 264.7275, 4172
18:00:04.562355, 264.73, 4164
18:00:04.562378, 264.7325, 4149
18:00:04.562393, 264.735, 4111
18:00:04.562409, 264.7375, 4144
18:00:04.564580, 264.74, 4166
18:00:04.564602, 264.7425, 4129
18:00:04.564617, 264.745, 4131
18:00:04.564632, 264.7475, 4142
18:00:04.574090, 264.75, 4138
18:00:04.574135, 264.7525, 4123
18:00:04.574156, 264.755, 4159
18:00:04.574174, 264.7575, 4180
18:00:04.593911, 264.76, 4142
18:00:04.594011, 264.7625, 4167
18:00:04.594045, 264.765, 4159
18:00:04.594092, 264.7675, 4148
18:00:04.599776, 264.77, 4119
18:00:04.599846, 264.7725, 4142
18:00:04.599890, 264.775, 4152
18:00:04.599923, 264.7775, 4147
18:00:04.626007, 264.78, 4140
18:00:04.626101, 264.7825, 4153
18:00:04.626129, 264.785, 4145
18:00:04.626150, 264.7875, 4122
18:00:04.626526, 264.79, 4158
18:00:04.626556, 264.7925, 4172
18:00:04.626572, 264.795, 4144
18:00:04.626586, 264.7975, 4148
18:00:04.626863, 264.8, 4136
18:00:04.626903, 264.8025, 4148
18:00:04.626940, 264.805, 4126
18:00:04.626967, 264.8075, 4159
18:00:04.635169, 264.81, 4147
18:00:04.635240, 264.8125, 4154
18:00:04.635284, 264.815, 4169
18:00:04.635325, 264.8175, 4156
18:00:04.659845, 264.82, 4148
18:00:04.659924, 264.8225, 4112
18:00:04.659947, 264.825, 4160
18:00:04.659980, 264.8275, 4117
18:00:04.660862, 264.83, 4127
18:00:04.660902, 264.8325, 4151
18:00:04.660918, 264.835, 4150
18:00:04.660932, 264.8375, 4145
18:00:04.670045, 264.84, 4120
18:00:04.670115, 264.8425, 4157
18:00:04.670158, 264.845, 4154
18:00:04.670199, 264.8475, 4157
18:00:04.695744, 264.85, 4178
18:00:04.695812, 264.8525, 4151
18:00:04.695864, 264.855, 4164
18:00:04.695888, 264.8575, 4131
18:00:04.696220, 264.86, 4205
18:00:04.696246, 264.8625, 4176
18:00:04.696261, 264.865, 4147
18:00:04.696276, 264.8675, 4171
18:00:04.696291, 264.87, 4187
18:00:04.696555, 264.8725, 4169
18:00:04.696575, 264.875, 4118
18:00:04.696590, 264.8775, 4184
18:00:04.696605, 264.88, 4173
18:00:04.729617, 264.8825, 4171
18:00:04.729680, 264.885, 4160
18:00:04.729705, 264.8875, 4174
18:00:04.729726, 264.89, 4180
18:00:04.730111, 264.8925, 4169
18:00:04.730135, 264.895, 4171
18:00:04.730151, 264.8975, 4176
18:00:04.730166, 264.9, 4180
18:00:04.730973, 264.9025, 4186
18:00:04.730994, 264.905, 4174
18:00:04.731009, 264.9075, 4196
18:00:04.731024, 264.91, 4158
18:00:04.739573, 264.9125, 4200
18:00:04.739615, 264.915, 4168
18:00:04.739631, 264.9175, 4136
18:00:04.739645, 264.92, 4143
18:00:04.760376, 264.9225, 4144
18:00:04.760475, 264.925, 4145
18:00:04.760511, 264.9275, 4113
18:00:04.760543, 264.93, 4160
18:00:04.766059, 264.9325, 4152
18:00:04.766117, 264.935, 4145
18:00:04.766147, 264.9375, 4174
18:00:04.766174, 264.94, 4156
18:00:04.775655, 264.9425, 4153
18:00:04.775714, 264.945, 4130
18:00:04.775741, 264.9475, 4162
18:00:04.775768, 264.95, 4136
18:00:04.775793, 264.9525, 4143
18:00:04.794750, 264.955, 4162
18:00:04.794866, 264.9575, 4164
18:00:04.794915, 264.96, 4171
18:00:04.794949, 264.9625, 4112
18:00:04.795483, 264.965, 4154
18:00:04.795522, 264.9675, 4151
18:00:04.795546, 264.97, 4149
18:00:04.795569, 264.9725, 4162
18:00:04.801453, 264.975, 4156
18:00:04.801538, 264.9775, 4162
18:00:04.801592, 264.98, 4125
18:00:04.801642, 264.9825, 4157
18:00:04.827116, 264.985, 4162
18:00:04.827205, 264.9875, 4159
18:00:04.827230, 264.99, 4178
18:00:04.827271, 264.9925, 4184
18:00:04.827747, 264.995, 4173
18:00:04.827785, 264.9975, 4159
18:00:04.827800, 265.0, 4196
18:00:04.827815, 265.0025, 4182
18:00:04.827829, 265.005, 4161
18:00:04.836605, 265.0075, 4166
18:00:04.836694, 265.01, 4172
18:00:04.836749, 265.0125, 4151
18:00:04.836800, 265.015, 4130
18:00:04.863868, 265.0175, 4172
18:00:04.863937, 265.02, 4172
18:00:04.863961, 265.0225, 4176
18:00:04.863982, 265.025, 4171
18:00:04.864367, 265.0275, 4193
18:00:04.864391, 265.03, 4168
18:00:04.864407, 265.0325, 4139
18:00:04.864422, 265.035, 4176
18:00:04.864692, 265.0375, 4169
18:00:04.864713, 265.04, 4170
18:00:04.864728, 265.0425, 4169
18:00:04.864743, 265.045, 4154
18:00:04.897995, 265.0475, 4172
18:00:04.898064, 265.05, 4133
18:00:04.898117, 265.0525, 4191
18:00:04.898140, 265.055, 4182
18:00:04.898472, 265.0575, 4136
18:00:04.898495, 265.06, 4137
18:00:04.898511, 265.0625, 4141
18:00:04.898526, 265.065, 4152
18:00:04.898793, 265.0675, 4112
18:00:04.898813, 265.07, 4148
18:00:04.898829, 265.0725, 4161
18:00:04.898852, 265.075, 4137
18:00:04.906184, 265.0775, 4167
18:00:04.906242, 265.08, 4156
18:00:04.906274, 265.0825, 4143
18:00:04.906302, 265.085, 4106
18:00:04.929147, 265.0875, 4148
18:00:04.929244, 265.09, 4159
18:00:04.929284, 265.0925, 4163
18:00:04.929319, 265.095, 4168
18:00:04.932272, 265.0975, 4182
18:00:04.932326, 265.1, 4170
18:00:04.932353, 265.1025, 4126
18:00:04.932379, 265.105, 4177
18:00:04.940821, 265.1075, 4180
18:00:04.940859, 265.11, 4167
18:00:04.940873, 265.1125, 4185
18:00:04.940887, 265.115, 4211
18:00:04.962761, 265.1175, 4202
18:00:04.962884, 265.12, 4150
18:00:04.962911, 265.1225, 4188
18:00:04.962931, 265.125, 4185
18:00:04.962960, 265.1275, 4134
18:00:04.963264, 265.13, 4119
18:00:04.963285, 265.1325, 4090
18:00:04.963300, 265.135, 4041
18:00:04.963314, 265.1375, 4047
18:00:04.967600, 265.14, 4091
18:00:04.967666, 265.1425, 4099
18:00:04.967707, 265.145, 4112
18:00:04.967745, 265.1475, 4127
18:00:04.977008, 265.15, 4139
18:00:04.977102, 265.1525, 4139
18:00:04.977127, 265.155, 4126
18:00:04.977150, 265.1575, 4125
18:00:04.997140, 265.16, 4103
18:00:04.997234, 265.1625, 4089
18:00:04.997258, 265.165, 4125
18:00:04.997279, 265.1675, 4137
18:00:05.002936, 265.17, 4129
18:00:05.003044, 265.1725, 4117
18:00:05.003103, 265.175, 4167
18:00:05.003155, 265.1775, 4165
18:00:05.030327, 265.18, 4176
18:00:05.030394, 265.1825, 4197
18:00:05.030421, 265.185, 4192
18:00:05.030442, 265.1875, 4197
18:00:05.030813, 265.19, 4157
18:00:05.030838, 265.1925, 4230
18:00:05.030877, 265.195, 4214
18:00:05.030893, 265.1975, 4187
18:00:05.031152, 265.2, 4192
18:00:05.031172, 265.2025, 4190
18:00:05.031187, 265.205, 4203
18:00:05.031202, 265.2075, 4173
18:00:05.037209, 265.21, 4216
18:00:05.037239, 265.2125, 4204
18:00:05.037255, 265.215, 4179
18:00:05.037270, 265.2175, 4193
18:00:05.064260, 265.22, 4203
18:00:05.064349, 265.2225, 4214
18:00:05.064380, 265.225, 4165
18:00:05.064407, 265.2275, 4202
18:00:05.064432, 265.23, 4200
18:00:05.064928, 265.2325, 4201
18:00:05.064958, 265.235, 4266
18:00:05.064978, 265.2375, 4362
18:00:05.064998, 265.24, 4440
18:00:05.072065, 265.2425, 4412
18:00:05.072092, 265.245, 4478
18:00:05.072107, 265.2475, 4485
18:00:05.072121, 265.25, 4426
18:00:05.095140, 265.2525, 4277
18:00:05.095258, 265.255, 4083
18:00:05.095292, 265.2575, 3816
18:00:05.095326, 265.26, 3435
18:00:05.095766, 265.2625, 3168
18:00:05.095799, 265.265, 2780
18:00:05.095815, 265.2675, 2271
18:00:05.095830, 265.27, 1876
18:00:05.098582, 265.2725, 1722
18:00:05.098616, 265.275, 1762
18:00:05.098631, 265.2775, 2007
18:00:05.098646, 265.28, 2814
18:00:05.130398, 265.2825, 3694
18:00:05.130503, 265.285, 4393
18:00:05.130529, 265.2875, 4793
18:00:05.130549, 265.29, 4911
18:00:05.130874, 265.2925, 4823
18:00:05.130914, 265.295, 4697
18:00:05.130951, 265.2975, 4621
18:00:05.130976, 265.3, 4546
18:00:05.131000, 265.3025, 4545
18:00:05.133481, 265.305, 4570
18:00:05.133515, 265.3075, 4549
18:00:05.133540, 265.31, 4539
18:00:05.133564, 265.3125, 4502
18:00:05.142757, 265.315, 4545
18:00:05.142882, 265.3175, 4533
18:00:05.142914, 265.32, 4534
18:00:05.142953, 265.3225, 4536
18:00:05.164737, 265.325, 4524
18:00:05.164806, 265.3275, 4523
18:00:05.164841, 265.33, 4480
18:00:05.164865, 265.3325, 4495
18:00:05.165213, 265.335, 4473
18:00:05.165236, 265.3375, 4466
18:00:05.165252, 265.34, 4448
18:00:05.165267, 265.3425, 4452
18:00:05.178018, 265.345, 4443
18:00:05.178124, 265.3475, 4401
18:00:05.178147, 265.35, 4428
18:00:05.178164, 265.3525, 4423
18:00:05.200945, 265.355, 4407
18:00:05.201042, 265.3575, 4410
18:00:05.201078, 265.36, 4391
18:00:05.201104, 265.3625, 4377
18:00:05.201515, 265.365, 4340
18:00:05.201546, 265.3675, 4388
18:00:05.201566, 265.37, 4361
18:00:05.201584, 265.3725, 4357
18:00:05.203417, 265.375, 4360
18:00:05.203450, 265.3775, 4368
18:00:05.203470, 265.38, 4349
18:00:05.203489, 265.3825, 4313
18:00:05.212593, 265.385, 4339
18:00:05.212644, 265.3875, 4318
18:00:05.212667, 265.39, 4300
18:00:05.212688, 265.3925, 4291
18:00:05.233073, 265.395, 4300
18:00:05.233161, 265.3975, 4300
18:00:05.233186, 265.4, 4222
18:00:05.233207, 265.4025, 4270
18:00:05.239035, 265.405, 4267
18:00:05.239095, 265.4075, 4232
18:00:05.239131, 265.41, 4251
18:00:05.239164, 265.4125, 4264
18:00:05.239241, 265.415, 4257
18:00:05.263522, 265.4175, 4203
18:00:05.263646, 265.42, 4244
18:00:05.263700, 265.4225, 4250
18:00:05.263737, 265.425, 4211
18:00:05.264326, 265.4275, 4188
18:00:05.264373, 265.43, 4221
18:00:05.264395, 265.4325, 4231
18:00:05.264415, 265.435, 4198
18:00:05.264760, 265.4375, 4218
18:00:05.264787, 265.44, 4228
18:00:05.264807, 265.4425, 4204
18:00:05.264827, 265.445, 4215
18:00:05.273739, 265.4475, 4210
18:00:05.273815, 265.45, 4202
18:00:05.273855, 265.4525, 4172
18:00:05.273892, 265.455, 4196
18:00:05.298088, 265.4575, 4199
18:00:05.298180, 265.46, 4162
18:00:05.298206, 265.4625, 4191
18:00:05.298225, 265.465, 4195
18:00:05.300078, 265.4675, 4200
18:00:05.300115, 265.47, 4151
18:00:05.300138, 265.4725, 4164
18:00:05.300213, 265.475, 4159
18:00:05.300240, 265.4775, 4151
18:00:05.308996, 265.48, 4183
18:00:05.309086, 265.4825, 4171
18:00:05.309141, 265.485, 4171
18:00:05.309192, 265.4875, 4155
18:00:05.333051, 265.49, 4187
18:00:05.333148, 265.4925, 4190
18:00:05.333176, 265.495, 4162
18:00:05.333197, 265.4975, 4184
18:00:05.333518, 265.5, 4179
18:00:05.333541, 265.5025, 4164
18:00:05.333557, 265.505, 4141
18:00:05.333571, 265.5075, 4198
18:00:05.334586, 265.51, 4186
18:00:05.334608, 265.5125, 4176
18:00:05.334624, 265.515, 4188
18:00:05.334638, 265.5175, 4173
18:00:05.366727, 265.52, 4165
18:00:05.366785, 265.5225, 4161
18:00:05.366835, 265.525, 4207
18:00:05.366873, 265.5275, 4186
18:00:05.367181, 265.53, 4191
18:00:05.367203, 265.5325, 4162
18:00:05.367219, 265.535, 4156
18:00:05.367234, 265.5375, 4128
18:00:05.370245, 265.54, 4099
18:00:05.370334, 265.5425, 4138
18:00:05.370387, 265.545, 4140
18:00:05.370437, 265.5475, 4116
18:00:05.379108, 265.55, 4136
18:00:05.379199, 265.5525, 4122
18:00:05.379232, 265.555, 4098
18:00:05.379275, 265.5575, 4058
18:00:05.396863, 265.56, 4109
18:00:05.396967, 265.5625, 4112
18:00:05.397000, 265.565, 4088
18:00:05.397038, 265.5675, 4084
18:00:05.397657, 265.57, 4090
18:00:05.397710, 265.5725, 4105
18:00:05.397734, 265.575, 4059
18:00:05.397757, 265.5775, 4086
18:00:05.430606, 265.58, 4098
18:00:05.430701, 265.5825, 4085
18:00:05.430724, 265.585, 4121
18:00:05.430742, 265.5875, 4119
18:00:05.431199, 265.59, 4109
18:00:05.431231, 265.5925, 4119
18:00:05.431246, 265.595, 4144
18:00:05.431261, 265.5975, 4150
18:00:05.431276, 265.6, 4150
18:00:05.431529, 265.6025, 4160
18:00:05.431553, 265.605, 4170
18:00:05.431568, 265.6075, 4177
18:00:05.431582, 265.61, 4151
18:00:05.440239, 265.6125, 4199
18:00:05.440332, 265.615, 4205
18:00:05.440389, 265.6175, 4220
18:00:05.440441, 265.62, 4216
18:00:05.464306, 265.6225, 4228
18:00:05.464435, 265.625, 4222
18:00:05.464483, 265.6275, 4180
18:00:05.464511, 265.63, 4227
18:00:05.464809, 265.6325, 4231
18:00:05.464843, 265.635, 4223
18:00:05.464859, 265.6375, 4216
18:00:05.464875, 265.64, 4226
18:00:05.475166, 265.6425, 4223
18:00:05.475260, 265.645, 4173
18:00:05.475310, 265.6475, 4204
18:00:05.475356, 265.65, 4218
18:00:05.501438, 265.6525, 4190
18:00:05.501500, 265.655, 4180
18:00:05.501522, 265.6575, 4214
18:00:05.501555, 265.66, 4202
18:00:05.502270, 265.6625, 4184
18:00:05.502350, 265.665, 4197
18:00:05.502403, 265.6675, 4171
18:00:05.502453, 265.67, 4166
18:00:05.503423, 265.6725, 4173
18:00:05.503496, 265.675, 4184
18:00:05.503549, 265.6775, 4188
18:00:05.503599, 265.68, 4150
18:00:05.510222, 265.6825, 4174
18:00:05.510302, 265.685, 4168
18:00:05.510356, 265.6875, 4174
18:00:05.510406, 265.69, 4203
18:00:05.533854, 265.6925, 4174
18:00:05.533912, 265.695, 4193
18:00:05.533934, 265.6975, 4158
18:00:05.533954, 265.7, 4188
18:00:05.535824, 265.7025, 4177
18:00:05.535849, 265.705, 4200
18:00:05.535865, 265.7075, 4193
18:00:05.535879, 265.71, 4185
18:00:05.535894, 265.7125, 4169
18:00:05.545423, 265.715, 4158
18:00:05.545492, 265.7175, 4189
18:00:05.545540, 265.72, 4192
18:00:05.545560, 265.7225, 4172
18:00:05.572069, 265.725, 4181
18:00:05.572118, 265.7275, 4173
18:00:05.572140, 265.73, 4195
18:00:05.572163, 265.7325, 4132
18:00:05.572505, 265.735, 4180
18:00:05.572530, 265.7375, 4183
18:00:05.572545, 265.74, 4156
18:00:05.572583, 265.7425, 4176
18:00:05.572828, 265.745, 4187
18:00:05.572846, 265.7475, 4190
18:00:05.572860, 265.75, 4148
18:00:05.572874, 265.7525, 4211
18:00:05.599063, 265.755, 4172
18:00:05.599181, 265.7575, 4171
18:00:05.599238, 265.76, 4193
18:00:05.599285, 265.7625, 4177
18:00:05.599870, 265.765, 4181
18:00:05.599905, 265.7675, 4162
18:00:05.599930, 265.77, 4187
18:00:05.599952, 265.7725, 4170
18:00:05.599974, 265.775, 4152
18:00:05.606173, 265.7775, 4180
18:00:05.606223, 265.78, 4170
18:00:05.606249, 265.7825, 4156
18:00:05.631577, 265.785, 4118
18:00:05.631652, 265.7875, 4149
18:00:05.631675, 265.79, 4168
18:00:05.631696, 265.7925, 4169
18:00:05.632076, 265.795, 4183
18:00:05.632107, 265.7975, 4179
18:00:05.632123, 265.8, 4161
18:00:05.632137, 265.8025, 4119
18:00:05.632152, 265.805, 4173
18:00:05.632405, 265.8075, 4159
18:00:05.632431, 265.81, 4114
18:00:05.632446, 265.8125, 4130
18:00:05.632459, 265.815, 4158
18:00:05.666674, 265.8175, 4170
18:00:05.666740, 265.82, 4143
18:00:05.666763, 265.8225, 4170
18:00:05.666782, 265.825, 4175
18:00:05.667130, 265.8275, 4164
18:00:05.667152, 265.83, 4167
18:00:05.667168, 265.8325, 4159
18:00:05.667182, 265.835, 4131
18:00:05.667439, 265.8375, 4101
18:00:05.667458, 265.84, 4149
18:00:05.667473, 265.8425, 4133
18:00:05.667488, 265.845, 4146
18:00:05.701113, 265.8475, 4176
18:00:05.701260, 265.85, 4176
18:00:05.701321, 265.8525, 4168
18:00:05.701375, 265.855, 4119
18:00:05.702142, 265.8575, 4153
18:00:05.702196, 265.86, 4150
18:00:05.702240, 265.8625, 4152
18:00:05.702282, 265.865, 4144
18:00:05.703025, 265.8675, 4141
18:00:05.703078, 265.87, 4162
18:00:05.703121, 265.8725, 3999
18:00:05.703164, 265.875, 4172
18:00:05.710957, 265.8775, 4180
18:00:05.710993, 265.88, 4170
18:00:05.711008, 265.8825, 4182
18:00:05.711021, 265.885, 4184
18:00:05.734606, 265.8875, 4171
18:00:05.734723, 265.89, 4164
18:00:05.734776, 265.8925, 4175
18:00:05.734828, 265.895, 4165
18:00:05.734901, 265.8975, 4152
18:00:05.735586, 265.9, 4160
18:00:05.735629, 265.9025, 4163
18:00:05.735667, 265.905, 4124
18:00:05.735705, 265.9075, 4119
18:00:05.737523, 265.91, 4187
18:00:05.737572, 265.9125, 4204
18:00:05.737613, 265.915, 4196
18:00:05.737650, 265.9175, 4215
18:00:05.765136, 265.92, 4200
18:00:05.765259, 265.9225, 4209
18:00:05.765305, 265.925, 4136
18:00:05.765346, 265.9275, 4167
18:00:05.765957, 265.93, 4174
18:00:05.766018, 265.9325, 4166
18:00:05.766050, 265.935, 4164
18:00:05.766082, 265.9375, 4150
18:00:05.772722, 265.94, 4163
18:00:05.772796, 265.9425, 4110
18:00:05.772847, 265.945, 4178
18:00:05.772896, 265.9475, 4172
18:00:05.798960, 265.95, 4182
18:00:05.799060, 265.9525, 4197
18:00:05.799104, 265.955, 4179
18:00:05.799143, 265.9575, 4165
18:00:05.799774, 265.96, 4125
18:00:05.799841, 265.9625, 4147
18:00:05.799873, 265.965, 4142
18:00:05.799904, 265.9675, 4138
18:00:05.800386, 265.97, 4156
18:00:05.800428, 265.9725, 4155
18:00:05.800458, 265.975, 4160
18:00:05.800485, 265.9775, 4143
18:00:05.834285, 265.98, 4180
18:00:05.834346, 265.9825, 4172
18:00:05.834383, 265.985, 4180
18:00:05.834420, 265.9875, 4200
18:00:05.834990, 265.99, 4200
18:00:05.835026, 265.9925, 4203
18:00:05.835058, 265.995, 4140
18:00:05.835087, 265.9975, 4184
18:00:05.835562, 266.0, 4192
18:00:05.835596, 266.0025, 4180
18:00:05.835627, 266.005, 4172
18:00:05.835655, 266.0075, 4214
18:00:05.842428, 266.01, 4182
18:00:05.842473, 266.0125, 4151
18:00:05.842506, 266.015, 4167
18:00:05.842537, 266.0175, 4187
18:00:05.842568, 266.02, 4191
18:00:05.866713, 266.0225, 4221
18:00:05.866874, 266.025, 4204
18:00:05.866923, 266.0275, 4203
18:00:05.866959, 266.03, 4152
18:00:05.867485, 266.0325, 4208
18:00:05.867529, 266.035, 4211
18:00:05.867560, 266.0375, 4191
18:00:05.867588, 266.04, 4180
18:00:05.868551, 266.0425, 4187
18:00:05.868589, 266.045, 4202
18:00:05.868629, 266.0475, 4160
18:00:05.868656, 266.05, 4209
18:00:05.877434, 266.0525, 4197
18:00:05.877478, 266.055, 4162
18:00:05.877509, 266.0575, 4184
18:00:05.877538, 266.06, 4193
18:00:05.900087, 266.0625, 4183
18:00:05.900206, 266.065, 4144
18:00:05.900269, 266.0675, 4190
18:00:05.900352, 266.07, 4187
18:00:05.903515, 266.0725, 4179
18:00:05.903559, 266.075, 4176
18:00:05.903589, 266.0775, 4168
18:00:05.903617, 266.08, 4178
18:00:05.912192, 266.0825, 4149
18:00:05.912223, 266.085, 4190
18:00:05.912239, 266.0875, 4185
18:00:05.912254, 266.09, 4161
18:00:05.912268, 266.0925, 4186
18:00:05.932635, 266.095, 4189
18:00:05.932813, 266.0975, 4168
18:00:05.932881, 266.1, 4118
18:00:05.932940, 266.1025, 4163
18:00:05.933790, 266.105, 4171
18:00:05.933865, 266.1075, 4151
18:00:05.933913, 266.11, 4152
18:00:05.933957, 266.1125, 4183
18:00:05.949416, 266.115, 4191
18:00:05.949522, 266.1175, 4152
18:00:05.949556, 266.12, 4196
18:00:05.949592, 266.1225, 4173
18:00:05.969440, 266.125, 4142
18:00:05.969513, 266.1275, 4184
18:00:05.969549, 266.13, 4190
18:00:05.969583, 266.1325, 4176
18:00:05.970089, 266.135, 4139
18:00:05.970123, 266.1375, 4205
18:00:05.970152, 266.14, 4189
18:00:05.970180, 266.1425, 4184
18:00:05.973510, 266.145, 4169
18:00:05.973545, 266.1475, 4159
18:00:05.973575, 266.15, 4140
18:00:05.973602, 266.1525, 4103
18:00:05.999714, 266.155, 4149
18:00:05.999814, 266.1575, 4165
18:00:05.999884, 266.16, 4158
18:00:05.999928, 266.1625, 4170
18:00:06.000385, 266.165, 4171
18:00:06.000431, 266.1675, 4151
18:00:06.000451, 266.17, 4135
18:00:06.000467, 266.1725, 4209
18:00:06.008357, 266.175, 4204
18:00:06.008396, 266.1775, 4180
18:00:06.008412, 266.18, 4190
18:00:06.008427, 266.1825, 4191
18:00:06.008441, 266.185, 4188
18:00:06.034068, 266.1875, 4178
18:00:06.034171, 266.19, 4181
18:00:06.034205, 266.1925, 4163
18:00:06.034321, 266.195, 4135
18:00:06.034742, 266.1975, 4076
18:00:06.034782, 266.2, 4063
18:00:06.034804, 266.2025, 4068
18:00:06.034824, 266.205, 4054
18:00:06.035213, 266.2075, 4135
18:00:06.035257, 266.21, 4140
18:00:06.035278, 266.2125, 4163
18:00:06.035305, 266.215, 4172
18:00:06.043334, 266.2175, 4164
18:00:06.043361, 266.22, 4143
18:00:06.043376, 266.2225, 4093
18:00:06.043390, 266.225, 4146
18:00:06.068073, 266.2275, 4169
18:00:06.068163, 266.23, 4198
18:00:06.068207, 266.2325, 4188
18:00:06.068243, 266.235, 4219
18:00:06.069717, 266.2375, 4194
18:00:06.069753, 266.24, 4156
18:00:06.069776, 266.2425, 4198
18:00:06.069796, 266.245, 4188
18:00:06.078538, 266.2475, 4183
18:00:06.078588, 266.25, 4206
18:00:06.078611, 266.2525, 4191
18:00:06.078632, 266.255, 4175
18:00:06.100370, 266.2575, 4151
18:00:06.100538, 266.26, 4198
18:00:06.100604, 266.2625, 4185
18:00:06.100667, 266.265, 4180
18:00:06.100723, 266.2675, 4193
18:00:06.101585, 266.27, 4207
18:00:06.101660, 266.2725, 4197
18:00:06.101706, 266.275, 4145
18:00:06.101752, 266.2775, 4204
18:00:06.105095, 266.28, 4211
18:00:06.105163, 266.2825, 4190
18:00:06.105213, 266.285, 4186
18:00:06.105263, 266.2875, 4173
18:00:06.133574, 266.29, 4190
18:00:06.133694, 266.2925, 4176
18:00:06.133736, 266.295, 4251
18:00:06.133771, 266.2975, 4304
18:00:06.134358, 266.3, 4356
18:00:06.134411, 266.3025, 4398
18:00:06.134440, 266.305, 4462
18:00:06.134468, 266.3075, 4482
18:00:06.140004, 266.31, 4453
18:00:06.140079, 266.3125, 4378
18:00:06.140124, 266.315, 4166
18:00:06.140166, 266.3175, 3901
18:00:06.150511, 266.32, 3644
18:00:06.150598, 266.3225, 3352
18:00:06.150705, 266.325, 3068
18:00:06.150744, 266.3275, 2650
18:00:06.170255, 266.33, 2189
18:00:06.170336, 266.3325, 1934
18:00:06.170375, 266.335, 1797
18:00:06.170414, 266.3375, 1966
18:00:06.171006, 266.34, 2314
18:00:06.171049, 266.3425, 3037
18:00:06.171081, 266.345, 3983
18:00:06.171108, 266.3475, 4729
18:00:06.201644, 266.35, 5007
18:00:06.201746, 266.3525, 5038
18:00:06.201855, 266.355, 4985
18:00:06.201899, 266.3575, 4853
18:00:06.202473, 266.36, 4717
18:00:06.202531, 266.3625, 4616
18:00:06.202563, 266.365, 4605
18:00:06.202594, 266.3675, 4550
18:00:06.202621, 266.37, 4478
18:00:06.203152, 266.3725, 4483
18:00:06.203200, 266.375, 4495
18:00:06.203233, 266.3775, 4487
18:00:06.203264, 266.38, 4461
18:00:06.210017, 266.3825, 4514
18:00:06.210093, 266.385, 4488
18:00:06.210137, 266.3875, 4483
18:00:06.210178, 266.39, 4490
18:00:06.237945, 266.3925, 4485
18:00:06.238010, 266.395, 4495
18:00:06.238078, 266.3975, 4428
18:00:06.238117, 266.4, 4467
18:00:06.238603, 266.4025, 4435
18:00:06.238637, 266.405, 4420
18:00:06.238665, 266.4075, 4426
18:00:06.238694, 266.41, 4396
18:00:06.244759, 266.4125, 4368
18:00:06.244799, 266.415, 4345
18:00:06.244829, 266.4175, 4363
18:00:06.244859, 266.42, 4353
18:00:06.244887, 266.4225, 4335
18:00:06.270060, 266.425, 4332
18:00:06.270118, 266.4275, 4333
18:00:06.270141, 266.43, 4329
18:00:06.270159, 266.4325, 4286
18:00:06.270517, 266.435, 4320
18:00:06.270538, 266.4375, 4313
18:00:06.270553, 266.44, 4291
18:00:06.270567, 266.4425, 4316
18:00:06.270825, 266.445, 4321
18:00:06.270860, 266.4475, 4314
18:00:06.270877, 266.45, 4265
18:00:06.270891, 266.4525, 4273
18:00:06.280345, 266.455, 4257
18:00:06.280445, 266.4575, 4246
18:00:06.280499, 266.46, 4237
18:00:06.280550, 266.4625, 4238
18:00:06.304420, 266.465, 4236
18:00:06.304508, 266.4675, 4213
18:00:06.304533, 266.47, 4222
18:00:06.304553, 266.4725, 4234
18:00:06.305957, 266.475, 4219
18:00:06.305991, 266.4775, 4247
18:00:06.306007, 266.48, 4231
18:00:06.306022, 266.4825, 4216
18:00:06.314555, 266.485, 4193
18:00:06.314584, 266.4875, 4228
18:00:06.314599, 266.49, 4224
18:00:06.314612, 266.4925, 4218
18:00:06.335949, 266.495, 4224
18:00:06.336061, 266.4975, 4225
18:00:06.336108, 266.5, 4223
18:00:06.336163, 266.5025, 4182
18:00:06.343128, 266.505, 4214
18:00:06.343168, 266.5075, 4222
18:00:06.343184, 266.51, 4205
18:00:06.343198, 266.5125, 4196
18:00:06.344164, 266.515, 4202
18:00:06.344183, 266.5175, 4211
18:00:06.344197, 266.52, 4158
18:00:06.344210, 266.5225, 4192
18:00:06.344224, 266.525, 4168
18:00:06.371548, 266.5275, 4166
18:00:06.371623, 266.53, 4174
18:00:06.371657, 266.5325, 4177
18:00:06.371686, 266.535, 4165
18:00:06.372190, 266.5375, 4165
18:00:06.372223, 266.54, 4201
18:00:06.372247, 266.5425, 4184
18:00:06.372270, 266.545, 4178
18:00:06.376096, 266.5475, 4209
18:00:06.376135, 266.55, 4212
18:00:06.376159, 266.5525, 4200
18:00:06.376182, 266.555, 4148
18:00:06.385560, 266.5575, 4191
18:00:06.385657, 266.56, 4203
18:00:06.385678, 266.5625, 4192
18:00:06.385694, 266.565, 4187
18:00:06.406492, 266.5675, 4187
18:00:06.406605, 266.57, 4216
18:00:06.406673, 266.5725, 4176
18:00:06.406732, 266.575, 4245
18:00:06.411527, 266.5775, 4222
18:00:06.411605, 266.58, 4194
18:00:06.411670, 266.5825, 4170
18:00:06.411731, 266.585, 4164
18:00:06.435055, 266.5875, 4166
18:00:06.435158, 266.59, 4111
18:00:06.435197, 266.5925, 4167
18:00:06.435233, 266.595, 4163
18:00:06.435270, 266.5975, 4148
18:00:06.435847, 266.6, 4164
18:00:06.435897, 266.6025, 4174
18:00:06.435925, 266.605, 4155
18:00:06.437377, 266.6075, 4124
18:00:06.437423, 266.61, 4168
18:00:06.437454, 266.6125, 4162
18:00:06.437481, 266.615, 4147
18:00:06.437509, 266.6175, 4166
18:00:06.446423, 266.62, 4172
18:00:06.446499, 266.6225, 4158
18:00:06.446550, 266.625, 4123
18:00:06.446597, 266.6275, 4137
18:00:06.472418, 266.63, 4136
18:00:06.472506, 266.6325, 4126
18:00:06.472554, 266.635, 4158
18:00:06.472588, 266.6375, 4171
18:00:06.473071, 266.64, 4170
18:00:06.473107, 266.6425, 4135
18:00:06.473137, 266.645, 4162
18:00:06.473163, 266.6475, 4176
18:00:06.481485, 266.65, 4189
18:00:06.481573, 266.6525, 4178
18:00:06.481622, 266.655, 4175
18:00:06.481665, 266.6575, 4175
18:00:06.505024, 266.66, 4144
18:00:06.505116, 266.6625, 4185
18:00:06.505191, 266.665, 4181
18:00:06.505239, 266.6675, 4185
18:00:06.505934, 266.67, 4203
18:00:06.505987, 266.6725, 4181
18:00:06.506027, 266.675, 4192
18:00:06.506064, 266.6775, 4179
18:00:06.507508, 266.68, 4234
18:00:06.507558, 266.6825, 4196
18:00:06.507597, 266.685, 4209
18:00:06.507633, 266.6875, 4229
18:00:06.516108, 266.69, 4206
18:00:06.516171, 266.6925, 4217
18:00:06.516217, 266.695, 4185
18:00:06.516265, 266.6975, 4203
18:00:06.516310, 266.7, 4184
18:00:06.543625, 266.7025, 4173
18:00:06.543687, 266.705, 4180
18:00:06.543713, 266.7075, 4206
18:00:06.543774, 266.71, 4189
18:00:06.544092, 266.7125, 4167
18:00:06.544116, 266.715, 4199
18:00:06.544132, 266.7175, 4200
18:00:06.544147, 266.72, 4196
18:00:06.551721, 266.7225, 4193
18:00:06.551793, 266.725, 4193
18:00:06.551940, 266.7275, 4173
18:00:06.551978, 266.73, 4130
18:00:06.582253, 266.7325, 4195
18:00:06.582353, 266.735, 4216
18:00:06.582381, 266.7375, 4176
18:00:06.582428, 266.74, 4153
18:00:06.582718, 266.7425, 4186
18:00:06.582740, 266.745, 4176
18:00:06.582757, 266.7475, 4137
18:00:06.582772, 266.75, 4160
18:00:06.583127, 266.7525, 4160
18:00:06.583193, 266.755, 4165
18:00:06.583247, 266.7575, 4183
18:00:06.583306, 266.76, 4179
18:00:06.610744, 266.7625, 4144
18:00:06.610799, 266.765, 4133
18:00:06.610822, 266.7675, 4168
18:00:06.610905, 266.77, 4156
18:00:06.611297, 266.7725, 4160
18:00:06.611334, 266.775, 4169
18:00:06.611350, 266.7775, 4175
18:00:06.611364, 266.78, 4172
18:00:06.612171, 266.7825, 4123
18:00:06.612193, 266.785, 4165
18:00:06.612208, 266.7875, 4159
18:00:06.612222, 266.79, 4130
18:00:06.643758, 266.7925, 4153
18:00:06.643887, 266.795, 4142
18:00:06.643931, 266.7975, 4153
18:00:06.643985, 266.8, 4124
18:00:06.644365, 266.8025, 4156
18:00:06.644391, 266.805, 4165
18:00:06.644410, 266.8075, 4158
18:00:06.644429, 266.81, 4176
18:00:06.644447, 266.8125, 4193
18:00:06.644780, 266.815, 4191
18:00:06.644804, 266.8175, 4138
18:00:06.644824, 266.82, 4176
18:00:06.644842, 266.8225, 4168
18:00:06.677190, 266.825, 4152
18:00:06.677287, 266.8275, 4142
18:00:06.677370, 266.83, 4141
18:00:06.677403, 266.8325, 4160
18:00:06.677803, 266.835, 4137
18:00:06.677832, 266.8375, 4144
18:00:06.677851, 266.84, 4159
18:00:06.677869, 266.8425, 4150
18:00:06.678249, 266.845, 4147
18:00:06.678274, 266.8475, 4151
18:00:06.678293, 266.85, 4176
18:00:06.678311, 266.8525, 4131
18:00:06.682176, 266.855, 4178
18:00:06.682203, 266.8575, 4171
18:00:06.682218, 266.86, 4165
18:00:06.682232, 266.8625, 4147
18:00:06.711029, 266.865, 4148
18:00:06.711099, 266.8675, 4140
18:00:06.711166, 266.87, 4125
18:00:06.711215, 266.8725, 4154
18:00:06.711495, 266.875, 4170
18:00:06.711518, 266.8775, 4182
18:00:06.711534, 266.88, 4182
18:00:06.711548, 266.8825, 4188
18:00:06.717060, 266.885, 4167
18:00:06.717090, 266.8875, 4140
18:00:06.717105, 266.89, 4160
18:00:06.717119, 266.8925, 4173
18:00:06.717133, 266.895, 4158
18:00:06.745814, 266.8975, 4146
18:00:06.745869, 266.9, 4138
18:00:06.745921, 266.9025, 4155
18:00:06.745966, 266.905, 4094
18:00:06.746439, 266.9075, 4152
18:00:06.746476, 266.91, 4159
18:00:06.746491, 266.9125, 4135
18:00:06.746505, 266.915, 4164
18:00:06.746751, 266.9175, 4151
18:00:06.746772, 266.92, 4161
18:00:06.746786, 266.9225, 4137
18:00:06.746800, 266.925, 4166
18:00:06.753208, 266.9275, 4157
18:00:06.753279, 266.93, 4156
18:00:06.753301, 266.9325, 4181
18:00:06.753320, 266.935, 4195
18:00:06.772338, 266.9375, 4183
18:00:06.772440, 266.94, 4145
18:00:06.772469, 266.9425, 4195
18:00:06.772500, 266.945, 4184
18:00:06.778337, 266.9475, 4181
18:00:06.778375, 266.95, 4190
18:00:06.778393, 266.9525, 4208
18:00:06.778409, 266.955, 4180
18:00:06.804596, 266.9575, 4129
18:00:06.804756, 266.96, 4172
18:00:06.804810, 266.9625, 4155
18:00:06.804875, 266.965, 4155
18:00:06.805586, 266.9675, 4163
18:00:06.805634, 266.97, 4164
18:00:06.805659, 266.9725, 4160
18:00:06.805681, 266.975, 4111
18:00:06.805705, 266.9775, 4158
18:00:06.806329, 266.98, 4165
18:00:06.806388, 266.9825, 4154
18:00:06.806441, 266.985, 4168
18:00:06.806468, 266.9875, 4189
18:00:06.813341, 266.99, 4191
18:00:06.813385, 266.9925, 4138
18:00:06.813402, 266.995, 4184
18:00:06.813418, 266.9975, 4164
18:00:06.842218, 267.0, 4153
18:00:06.842326, 267.0025, 4151
18:00:06.842378, 267.005, 4158
18:00:06.842428, 267.0075, 4157
18:00:06.843169, 267.01, 4137
18:00:06.843227, 267.0125, 4170
18:00:06.843267, 267.015, 4166
18:00:06.843302, 267.0175, 4160
18:00:06.848328, 267.02, 4149
18:00:06.848351, 267.0225, 4156
18:00:06.848366, 267.025, 4144
18:00:06.848379, 267.0275, 4128
18:00:06.871502, 267.03, 4179
18:00:06.871621, 267.0325, 4172
18:00:06.871659, 267.035, 4153
18:00:06.871695, 267.0375, 4156
18:00:06.872307, 267.04, 4160
18:00:06.872355, 267.0425, 4171
18:00:06.872379, 267.045, 4123
18:00:06.872401, 267.0475, 4186
18:00:06.883392, 267.05, 4176
18:00:06.883429, 267.0525, 4158
18:00:06.883485, 267.055, 4163
18:00:06.883507, 267.0575, 4160
18:00:06.908114, 267.06, 4160
18:00:06.908200, 267.0625, 4125
18:00:06.908233, 267.065, 4153
18:00:06.908260, 267.0675, 4172
18:00:06.908287, 267.07, 4159
18:00:06.908938, 267.0725, 4154
18:00:06.908986, 267.075, 4145
18:00:06.909019, 267.0775, 4149
18:00:06.909051, 267.08, 4119
18:00:06.909871, 267.0825, 4169
18:00:06.909916, 267.085, 4164
18:00:06.909948, 267.0875, 4140
18:00:06.909979, 267.09, 4164
18:00:06.920833, 267.0925, 4129
18:00:06.920923, 267.095, 4115
18:00:06.920945, 267.0975, 4082
18:00:06.920964, 267.1, 4142
18:00:06.939864, 267.1025, 4143
18:00:06.939925, 267.105, 4128
18:00:06.939948, 267.1075, 4171
18:00:06.939968, 267.11, 4161
18:00:06.945167, 267.1125, 4165
18:00:06.945269, 267.115, 4110
18:00:06.945342, 267.1175, 4156
18:00:06.945413, 267.12, 4152
18:00:06.974073, 267.1225, 4125
18:00:06.974145, 267.125, 4153
18:00:06.974171, 267.1275, 4180
18:00:06.974219, 267.13, 4170
18:00:06.974558, 267.1325, 4146
18:00:06.974582, 267.135, 4179
18:00:06.974601, 267.1375, 4174
18:00:06.974617, 267.14, 4168
18:00:06.974921, 267.1425, 4155
18:00:06.974944, 267.145, 4171
18:00:06.974960, 267.1475, 4169
18:00:06.974975, 267.15, 4024
18:00:06.979603, 267.1525, 4188
18:00:06.979632, 267.155, 4197
18:00:06.979648, 267.1575, 4173
18:00:06.979663, 267.16, 4163
18:00:06.988657, 267.1625, 4174
18:00:06.989496, 267.165, 4149
18:00:06.989557, 267.1675, 4120
18:00:06.989578, 267.17, 4175
18:00:07.009526, 267.1725, 4175
18:00:07.009592, 267.175, 4168
18:00:07.009617, 267.1775, 4178
18:00:07.009638, 267.18, 4180
18:00:07.039953, 267.1825, 4156
18:00:07.040117, 267.185, 4124
18:00:07.040171, 267.1875, 4169
18:00:07.040227, 267.19, 4132
18:00:07.040334, 267.1925, 4125
18:00:07.040851, 267.195, 4167
18:00:07.040885, 267.1975, 4171
18:00:07.040908, 267.2, 4155
18:00:07.040931, 267.2025, 4105
18:00:07.042183, 267.205, 4173
18:00:07.042215, 267.2075, 4174
18:00:07.042237, 267.21, 4156
18:00:07.042258, 267.2125, 4180
18:00:07.043568, 267.215, 4197
18:00:07.043612, 267.2175, 4168
18:00:07.043643, 267.22, 4030
18:00:07.043673, 267.2225, 4182
18:00:07.075333, 267.225, 4196
18:00:07.075424, 267.2275, 4174
18:00:07.075466, 267.23, 4184
18:00:07.075494, 267.2325, 4180
18:00:07.075922, 267.235, 4185
18:00:07.075953, 267.2375, 4135
18:00:07.075975, 267.24, 4188
18:00:07.075997, 267.2425, 4191
18:00:07.076374, 267.245, 4180
18:00:07.076403, 267.2475, 4183
18:00:07.076425, 267.25, 4192
18:00:07.076447, 267.2525, 4176
18:00:07.110162, 267.255, 4116
18:00:07.110228, 267.2575, 4157
18:00:07.110254, 267.26, 4145
18:00:07.110275, 267.2625, 4137
18:00:07.110313, 267.265, 4142
18:00:07.110685, 267.2675, 4152
18:00:07.110712, 267.27, 4152
18:00:07.110729, 267.2725, 4156
18:00:07.110745, 267.275, 4186
18:00:07.111048, 267.2775, 4180
18:00:07.111070, 267.28, 4180
18:00:07.111086, 267.2825, 4203
18:00:07.111102, 267.285, 4197
18:00:07.120490, 267.2875, 4189
18:00:07.120583, 267.29, 4064
18:00:07.120613, 267.2925, 4223
18:00:07.120641, 267.295, 4223
18:00:07.150090, 267.2975, 4179
18:00:07.150182, 267.3, 4179
18:00:07.150236, 267.3025, 4192
18:00:07.150282, 267.305, 4170
18:00:07.151253, 267.3075, 4117
18:00:07.151353, 267.31, 4181
18:00:07.151410, 267.3125, 4187
18:00:07.151462, 267.315, 4177
18:00:07.152378, 267.3175, 4184
18:00:07.152445, 267.32, 4192
18:00:07.152498, 267.3225, 4186
18:00:07.152548, 267.325, 4169
18:00:07.173742, 267.3275, 4191
18:00:07.173864, 267.33, 4174
18:00:07.173912, 267.3325, 4180
18:00:07.173951, 267.335, 4185
18:00:07.174486, 267.3375, 4182
18:00:07.174527, 267.34, 4169
18:00:07.174548, 267.3425, 4139
18:00:07.174567, 267.345, 4181
18:00:07.174586, 267.3475, 4140
18:00:07.181133, 267.35, 4144
18:00:07.181178, 267.3525, 4206
18:00:07.181199, 267.355, 4278
18:00:07.181219, 267.3575, 4320
18:00:07.206379, 267.36, 4391
18:00:07.206485, 267.3625, 4422
18:00:07.206519, 267.365, 4451
18:00:07.206550, 267.3675, 4464
18:00:07.207065, 267.37, 4361
18:00:07.207112, 267.3725, 4182
18:00:07.207135, 267.375, 3975
18:00:07.207157, 267.3775, 3662
18:00:07.207546, 267.38, 3378
18:00:07.207620, 267.3825, 2999
18:00:07.207646, 267.385, 2586
18:00:07.207668, 267.3875, 2054
18:00:07.216442, 267.39, 1749
18:00:07.216528, 267.3925, 1662
18:00:07.216572, 267.395, 1723
18:00:07.216613, 267.3975, 2209
18:00:07.246061, 267.4, 3026
18:00:07.246273, 267.4025, 3891
18:00:07.246338, 267.405, 4523
18:00:07.246429, 267.4075, 4846
18:00:07.247472, 267.41, 4902
18:00:07.247551, 267.4125, 4789
18:00:07.247606, 267.415, 4676
18:00:07.247658, 267.4175, 4566
18:00:07.247710, 267.42, 4520
18:00:07.251688, 267.4225, 4522
18:00:07.251766, 267.425, 4499
18:00:07.251819, 267.4275, 4487
18:00:07.251870, 267.43, 4466
18:00:07.281054, 267.4325, 4504
18:00:07.281223, 267.435, 4505
18:00:07.281328, 267.4375, 4528
18:00:07.281492, 267.44, 4516
18:00:07.282439, 267.4425, 4494
18:00:07.282516, 267.445, 4479
18:00:07.282571, 267.4475, 4455
18:00:07.282623, 267.45, 4477
18:00:07.283588, 267.4525, 4463
18:00:07.283660, 267.455, 4463
18:00:07.283712, 267.4575, 4480
18:00:07.283763, 267.46, 4462
18:00:07.314442, 267.4625, 4438
18:00:07.314534, 267.465, 4398
18:00:07.314576, 267.4675, 4409
18:00:07.314621, 267.47, 4399
18:00:07.315672, 267.4725, 4394
18:00:07.315756, 267.475, 4411
18:00:07.315811, 267.4775, 4389
18:00:07.315863, 267.48, 4370
18:00:07.316765, 267.4825, 4323
18:00:07.316833, 267.485, 4352
18:00:07.316884, 267.4875, 4350
18:00:07.316933, 267.49, 4330
18:00:07.316983, 267.4925, 4330
18:00:07.346098, 267.495, 4348
18:00:07.346179, 267.4975, 4329
18:00:07.346234, 267.5, 4299
18:00:07.346282, 267.5025, 4351
18:00:07.347353, 267.505, 4335
18:00:07.347438, 267.5075, 4339
18:00:07.347495, 267.51, 4334
18:00:07.347548, 267.5125, 4335
18:00:07.380199, 267.515, 4328
18:00:07.380292, 267.5175, 4175
18:00:07.380356, 267.52, 4335
18:00:07.380492, 267.5225, 4304
18:00:07.381258, 267.525, 4258
18:00:07.381310, 267.5275, 4238
18:00:07.381344, 267.53, 4231
18:00:07.381375, 267.5325, 4220
18:00:07.381933, 267.535, 4211
18:00:07.381974, 267.5375, 4262
18:00:07.382006, 267.54, 4228
18:00:07.382036, 267.5425, 4224
18:00:07.382589, 267.545, 4233
18:00:07.382630, 267.5475, 4246
18:00:07.382662, 267.55, 4238
18:00:07.382693, 267.5525, 4221
18:00:07.383428, 267.555, 4253
18:00:07.383486, 267.5575, 4231
18:00:07.383527, 267.56, 4199
18:00:07.383567, 267.5625, 4220
18:00:07.411730, 267.565, 4227
18:00:07.411888, 267.5675, 4221
18:00:07.411919, 267.57, 4179
18:00:07.411964, 267.5725, 4206
18:00:07.411992, 267.575, 4211
18:00:07.419789, 267.5775, 4189
18:00:07.419867, 267.58, 4227
18:00:07.419916, 267.5825, 4226
18:00:07.419962, 267.585, 4224
18:00:07.420890, 267.5875, 4199
18:00:07.420961, 267.59, 4245
18:00:07.421021, 267.5925, 4210
18:00:07.421038, 267.595, 4204
18:00:07.448426, 267.5975, 4205
18:00:07.448501, 267.6, 4211
18:00:07.448544, 267.6025, 4211
18:00:07.448582, 267.605, 4079
18:00:07.449077, 267.6075, 4223
18:00:07.449111, 267.61, 4207
18:00:07.449133, 267.6125, 4198
18:00:07.449154, 267.615, 4206
18:00:07.449518, 267.6175, 4198
18:00:07.449545, 267.62, 4192
18:00:07.449566, 267.6225, 4167
18:00:07.449586, 267.625, 4212
18:00:07.480302, 267.6275, 4200
18:00:07.480463, 267.63, 4196
18:00:07.480520, 267.6325, 4202
18:00:07.480563, 267.635, 4199
18:00:07.480605, 267.6375, 4201
18:00:07.481118, 267.64, 4193
18:00:07.481155, 267.6425, 4217
18:00:07.481180, 267.645, 4198
18:00:07.481203, 267.6475, 4186
18:00:07.481608, 267.65, 4201
18:00:07.481638, 267.6525, 4208
18:00:07.481661, 267.655, 4220
18:00:07.481683, 267.6575, 4177
18:00:07.487829, 267.66, 4214
18:00:07.487940, 267.6625, 4187
18:00:07.487996, 267.665, 4149
18:00:07.488066, 267.6675, 4155
18:00:07.510178, 267.67, 4144
18:00:07.510276, 267.6725, 4134
18:00:07.510311, 267.675, 4086
18:00:07.510385, 267.6775, 4132
18:00:07.510869, 267.68, 4134
18:00:07.510917, 267.6825, 4110
18:00:07.510944, 267.685, 4094
18:00:07.510970, 267.6875, 4115
18:00:07.523295, 267.69, 4110
18:00:07.523341, 267.6925, 4067
18:00:07.523450, 267.695, 4112
18:00:07.523499, 267.6975, 4096
18:00:07.523547, 267.7, 4092
18:00:07.541939, 267.7025, 4125
18:00:07.542015, 267.705, 4105
18:00:07.542038, 267.7075, 4120
18:00:07.542096, 267.71, 4084
18:00:07.542392, 267.7125, 4124
18:00:07.542417, 267.715, 4138
18:00:07.542433, 267.7175, 4137
18:00:07.542446, 267.72, 4147
18:00:07.548463, 267.7225, 4149
18:00:07.548555, 267.725, 4164
18:00:07.548609, 267.7275, 4133
18:00:07.548654, 267.73, 4165
18:00:07.558079, 267.7325, 4165
18:00:07.558135, 267.735, 4165
18:00:07.558157, 267.7375, 4155
18:00:07.558176, 267.74, 4162
18:00:07.576874, 267.7425, 4170
18:00:07.576950, 267.745, 4137
18:00:07.576976, 267.7475, 4171
18:00:07.576996, 267.75, 4152
18:00:07.583603, 267.7525, 4169
18:00:07.583659, 267.755, 4179
18:00:07.583692, 267.7575, 4162
18:00:07.583722, 267.76, 4180
18:00:07.611750, 267.7625, 4145
18:00:07.611811, 267.765, 4174
18:00:07.611833, 267.7675, 4167
18:00:07.611853, 267.77, 4170
18:00:07.612198, 267.7725, 4182
18:00:07.612223, 267.775, 4199
18:00:07.612238, 267.7775, 4164
18:00:07.612253, 267.78, 4129
18:00:07.612513, 267.7825, 4191
18:00:07.612531, 267.785, 4181
18:00:07.612546, 267.7875, 4157
18:00:07.612561, 267.79, 4204
18:00:07.618860, 267.7925, 4176
18:00:07.618939, 267.795, 4157
18:00:07.618988, 267.7975, 4119
18:00:07.619034, 267.8, 4184
18:00:07.643652, 267.8025, 4182
18:00:07.643741, 267.805, 4157
18:00:07.643783, 267.8075, 4185
18:00:07.643866, 267.81, 4186
18:00:07.643918, 267.8125, 4181
18:00:07.644756, 267.815, 4162
18:00:07.644794, 267.8175, 4185
18:00:07.644833, 267.82, 4176
18:00:07.644871, 267.8225, 4167
18:00:07.653534, 267.825, 4168
18:00:07.653587, 267.8275, 4178
18:00:07.653616, 267.83, 4183
18:00:07.653644, 267.8325, 4144
18:00:07.678692, 267.835, 4148
18:00:07.678759, 267.8375, 4163
18:00:07.678783, 267.84, 4170
18:00:07.678803, 267.8425, 4175
18:00:07.679162, 267.845, 4194
18:00:07.679185, 267.8475, 4177
18:00:07.679200, 267.85, 4131
18:00:07.679214, 267.8525, 4171
18:00:07.679555, 267.855, 4176
18:00:07.679576, 267.8575, 4176
18:00:07.679592, 267.86, 4152
18:00:07.679606, 267.8625, 4143
18:00:07.708779, 267.865, 4137
18:00:07.708858, 267.8675, 4115
18:00:07.708880, 267.87, 4158
18:00:07.708900, 267.8725, 4152
18:00:07.708920, 267.875, 4152
18:00:07.709322, 267.8775, 4170
18:00:07.709361, 267.88, 4158
18:00:07.709378, 267.8825, 4164
18:00:07.709392, 267.885, 4114
18:00:07.714722, 267.8875, 4183
18:00:07.714766, 267.89, 4173
18:00:07.714789, 267.8925, 4162
18:00:07.714811, 267.895, 4159
18:00:07.725196, 267.8975, 4164
18:00:07.725268, 267.9, 4157
18:00:07.725343, 267.9025, 4116
18:00:07.725410, 267.905, 4132
18:00:07.754342, 267.9075, 4157
18:00:07.754430, 267.91, 4145
18:00:07.754475, 267.9125, 4175
18:00:07.754524, 267.915, 4175
18:00:07.755693, 267.9175, 4162
18:00:07.755800, 267.92, 4151
18:00:07.755885, 267.9225, 4198
18:00:07.755967, 267.925, 4210
18:00:07.781943, 267.9275, 4200
18:00:07.782082, 267.93, 4190
18:00:07.782143, 267.9325, 4211
18:00:07.782196, 267.935, 4203
18:00:07.783902, 267.9375, 4172
18:00:07.784033, 267.94, 4201
18:00:07.784147, 267.9425, 4200
18:00:07.784257, 267.945, 4171
18:00:07.785893, 267.9475, 4178
18:00:07.786014, 267.95, 4185
18:00:07.786117, 267.9525, 4198
18:00:07.786221, 267.955, 4176
18:00:07.787931, 267.9575, 4227
18:00:07.788053, 267.96, 4193
18:00:07.788162, 267.9625, 4181
18:00:07.788259, 267.965, 4184
18:00:07.788357, 267.9675, 4210
18:00:07.809987, 267.97, 4201
18:00:07.810126, 267.9725, 4189
18:00:07.810165, 267.975, 4212
18:00:07.810198, 267.9775, 4219
18:00:07.811260, 267.98, 4203
18:00:07.811308, 267.9825, 4214
18:00:07.811337, 267.985, 4204
18:00:07.811364, 267.9875, 4179
18:00:07.819747, 267.99, 4138
18:00:07.819792, 267.9925, 4165
18:00:07.819823, 267.995, 4162
18:00:07.819853, 267.9975, 4159
18:00:07.855319, 268.0, 4183
18:00:07.855374, 268.0025, 4178
18:00:07.855393, 268.005, 4178
18:00:07.855426, 268.0075, 4144
18:00:07.855741, 268.01, 4201
18:00:07.855765, 268.0125, 4179
18:00:07.855779, 268.015, 4154
18:00:07.855793, 268.0175, 4149
18:00:07.856034, 268.02, 4161
18:00:07.856052, 268.0225, 4183
18:00:07.856066, 268.025, 4033
18:00:07.856079, 268.0275, 4204
18:00:07.882725, 268.03, 4170
18:00:07.882821, 268.0325, 4167
18:00:07.882875, 268.035, 4160
18:00:07.882957, 268.0375, 4169
18:00:07.883334, 268.04, 4161
18:00:07.883371, 268.0425, 4165
18:00:07.883397, 268.045, 4175
18:00:07.883422, 268.0475, 4179
18:00:07.883444, 268.05, 4168
18:00:07.883871, 268.0525, 4163
18:00:07.883940, 268.055, 4183
18:00:07.883979, 268.0575, 4166
18:00:07.883993, 268.06, 4126
18:00:07.889671, 268.0625, 4196
18:00:07.889698, 268.065, 4172
18:00:07.889715, 268.0675, 4172
18:00:07.889729, 268.07, 4156
18:00:07.919189, 268.0725, 4172
18:00:07.919246, 268.075, 4160
18:00:07.919279, 268.0775, 4132
18:00:07.919341, 268.08, 4177
18:00:07.919698, 268.0825, 4186
18:00:07.919726, 268.085, 4171
18:00:07.919740, 268.0875, 4168
18:00:07.919754, 268.09, 4159
18:00:07.925424, 268.0925, 4165
18:00:07.925510, 268.095, 4113
18:00:07.925528, 268.0975, 4163
18:00:07.925543, 268.1, 4161
18:00:07.949975, 268.1025, 4151
18:00:07.950026, 268.105, 4181
18:00:07.950051, 268.1075, 4157
18:00:07.950073, 268.11, 4167
18:00:07.950453, 268.1125, 4130
18:00:07.950476, 268.115, 4166
18:00:07.950492, 268.1175, 4156
18:00:07.950511, 268.12, 4158
18:00:07.950803, 268.1225, 4153
18:00:07.950823, 268.125, 4170
18:00:07.950839, 268.1275, 4142
18:00:07.950870, 268.13, 4086
18:00:07.985054, 268.1325, 4143
18:00:07.985103, 268.135, 4137
18:00:07.985172, 268.1375, 4149
18:00:07.985199, 268.14, 4172
18:00:07.985640, 268.1425, 4146
18:00:07.985672, 268.145, 4129
18:00:07.985692, 268.1475, 4082
18:00:07.985710, 268.15, 4138
18:00:07.986038, 268.1525, 4158
18:00:07.986062, 268.155, 4147
18:00:07.986081, 268.1575, 4149
18:00:07.986100, 268.16, 4157
18:00:07.986118, 268.1625, 4162
18:00:08.018192, 268.165, 4141
18:00:08.018249, 268.1675, 4179
18:00:08.018314, 268.17, 4152
18:00:08.018340, 268.1725, 4151
18:00:08.018671, 268.175, 4174
18:00:08.018697, 268.1775, 4157
18:00:08.018713, 268.18, 4161
18:00:08.018728, 268.1825, 4131
18:00:08.019007, 268.185, 4181
18:00:08.019028, 268.1875, 4174
18:00:08.019043, 268.19, 4158
18:00:08.019057, 268.1925, 4179
18:00:08.020934, 268.195, 4173
18:00:08.020970, 268.1975, 4165
18:00:08.020998, 268.2, 4147
18:00:08.021025, 268.2025, 4180
18:00:08.044431, 268.205, 4160
18:00:08.044518, 268.2075, 4154
18:00:08.044556, 268.21, 4140
18:00:08.044588, 268.2125, 4129
18:00:08.047663, 268.215, 4127
18:00:08.047742, 268.2175, 4103
18:00:08.047787, 268.22, 4172
18:00:08.047827, 268.2225, 4145
18:00:08.047868, 268.225, 4129
18:00:08.056149, 268.2275, 4140
18:00:08.056260, 268.23, 4147
18:00:08.056309, 268.2325, 4133
18:00:08.056352, 268.235, 4092
18:00:08.081841, 268.2375, 4140
18:00:08.081967, 268.24, 4126
18:00:08.082024, 268.2425, 4137
18:00:08.082070, 268.245, 4105
18:00:08.082881, 268.2475, 4149
18:00:08.082937, 268.25, 4129
18:00:08.083001, 268.2525, 4075
18:00:08.083054, 268.255, 4143
18:00:08.083554, 268.2575, 4155
18:00:08.083586, 268.26, 4144
18:00:08.083609, 268.2625, 4154
18:00:08.083629, 268.265, 4161
18:00:08.110117, 268.2675, 4133
18:00:08.110199, 268.27, 4119
18:00:08.110230, 268.2725, 4152
18:00:08.110257, 268.275, 4143
18:00:08.110693, 268.2775, 4145
18:00:08.110730, 268.28, 4144
18:00:08.110748, 268.2825, 4146
18:00:08.110763, 268.285, 4133
18:00:08.117329, 268.2875, 4101
18:00:08.117373, 268.29, 4142
18:00:08.117394, 268.2925, 4144
18:00:08.117413, 268.295, 4124
18:00:08.128677, 268.2975, 4156
18:00:08.130097, 268.3, 4161
18:00:08.130181, 268.3025, 4166
18:00:08.130236, 268.305, 4132
18:00:08.130284, 268.3075, 4154
18:00:08.152913, 268.31, 4153
18:00:08.153005, 268.3125, 4150
18:00:08.153133, 268.315, 4173
18:00:08.153190, 268.3175, 4187
18:00:08.153709, 268.32, 4174
18:00:08.153747, 268.3225, 4139
18:00:08.153774, 268.325, 4168
18:00:08.153798, 268.3275, 4128
18:00:08.181364, 268.33, 4094
18:00:08.181518, 268.3325, 4092
18:00:08.181586, 268.335, 4114
18:00:08.181642, 268.3375, 4123
18:00:08.182141, 268.34, 4060
18:00:08.182176, 268.3425, 4084
18:00:08.182200, 268.345, 4097
18:00:08.182222, 268.3475, 4092
18:00:08.182608, 268.35, 4143
18:00:08.182637, 268.3525, 4132
18:00:08.182659, 268.355, 4116
18:00:08.182680, 268.3575, 4085
18:00:08.216564, 268.36, 4146
18:00:08.216674, 268.3625, 4147
18:00:08.216747, 268.365, 4138
18:00:08.216859, 268.3675, 4147
18:00:08.217357, 268.37, 4173
18:00:08.217395, 268.3725, 4170
18:00:08.217420, 268.375, 4143
18:00:08.217442, 268.3775, 4200
18:00:08.217465, 268.38, 4179
18:00:08.218023, 268.3825, 4163
18:00:08.218083, 268.385, 4170
18:00:08.218129, 268.3875, 4203
18:00:08.218174, 268.39, 4214
18:00:08.222765, 268.3925, 4181
18:00:08.222836, 268.395, 4198
18:00:08.222932, 268.3975, 4183
18:00:08.222988, 268.4, 4203
18:00:08.253137, 268.4025, 4200
18:00:08.253188, 268.405, 4196
18:00:08.253247, 268.4075, 4205
18:00:08.253300, 268.41, 4137
18:00:08.254319, 268.4125, 4198
18:00:08.254405, 268.415, 4175
18:00:08.254461, 268.4175, 4193
18:00:08.254514, 268.42, 4196
18:00:08.255455, 268.4225, 4190
18:00:08.255525, 268.425, 4185
18:00:08.255578, 268.4275, 4161
18:00:08.255628, 268.43, 4261
18:00:08.257712, 268.4325, 4332
18:00:08.257792, 268.435, 4371
18:00:08.257848, 268.4375, 4418
18:00:08.257897, 268.44, 4474
18:00:08.285152, 268.4425, 4475
18:00:08.285225, 268.445, 4357
18:00:08.285270, 268.4475, 4251
18:00:08.285309, 268.45, 4029
18:00:08.286263, 268.4525, 3825
18:00:08.286354, 268.455, 3502
18:00:08.286411, 268.4575, 3238
18:00:08.286463, 268.46, 2817
18:00:08.293521, 268.4625, 2318
18:00:08.293588, 268.465, 2038
18:00:08.293624, 268.4675, 1839
18:00:08.293659, 268.47, 1902
18:00:08.293695, 268.4725, 2212
18:00:08.318761, 268.475, 2827
18:00:08.318936, 268.4775, 3690
18:00:08.318982, 268.48, 4474
18:00:08.319015, 268.4825, 4901
18:00:08.319762, 268.485, 5055
18:00:08.319824, 268.4875, 5007
18:00:08.319868, 268.49, 4889
18:00:08.319909, 268.4925, 4717
18:00:08.328498, 268.495, 4622
18:00:08.328542, 268.4975, 4525
18:00:08.329591, 268.5, 4529
18:00:08.330125, 268.5025, 4495
18:00:08.354564, 268.505, 4470
18:00:08.354617, 268.5075, 4476
18:00:08.354681, 268.51, 4480
18:00:08.354705, 268.5125, 4488
18:00:08.355037, 268.515, 4463
18:00:08.355072, 268.5175, 4493
18:00:08.355092, 268.52, 4471
18:00:08.355107, 268.5225, 4466
18:00:08.355692, 268.525, 4470
18:00:08.355711, 268.5275, 4460
18:00:08.355725, 268.53, 4454
18:00:08.355738, 268.5325, 4390
18:00:08.385488, 268.535, 4454
18:00:08.385551, 268.5375, 4429
18:00:08.385591, 268.54, 4408
18:00:08.385616, 268.5425, 4407
18:00:08.385955, 268.545, 4395
18:00:08.385979, 268.5475, 4387
18:00:08.385994, 268.55, 4338
18:00:08.386009, 268.5525, 4369
18:00:08.388324, 268.555, 4338
18:00:08.388356, 268.5575, 4305
18:00:08.388371, 268.56, 4337
18:00:08.388384, 268.5625, 4332
18:00:08.388398, 268.565, 4321
18:00:08.424934, 268.5675, 4308
18:00:08.424992, 268.57, 4323
18:00:08.425055, 268.5725, 4292
18:00:08.425105, 268.575, 4289
18:00:08.425398, 268.5775, 4305
18:00:08.425420, 268.58, 4280
18:00:08.425436, 268.5825, 4270
18:00:08.425451, 268.585, 4229
18:00:08.425725, 268.5875, 4280
18:00:08.425744, 268.59, 4279
18:00:08.425758, 268.5925, 4274
18:00:08.425771, 268.595, 4265
18:00:08.426695, 268.5975, 4262
18:00:08.426748, 268.6, 4230
18:00:08.426783, 268.6025, 4193
18:00:08.426815, 268.605, 4229
18:00:08.447129, 268.6075, 4210
18:00:08.447231, 268.61, 4204
18:00:08.447257, 268.6125, 4190
18:00:08.447277, 268.615, 4195
18:00:08.449558, 268.6175, 4186
18:00:08.449591, 268.62, 4156
18:00:08.449607, 268.6225, 4224
18:00:08.449621, 268.625, 4220
18:00:08.449636, 268.6275, 4184
18:00:08.458306, 268.63, 4191
18:00:08.458346, 268.6325, 4197
18:00:08.458361, 268.635, 4197
18:00:08.480918, 268.6375, 4157
18:00:08.481029, 268.64, 4174
18:00:08.481067, 268.6425, 4159
18:00:08.481097, 268.645, 4168
18:00:08.481807, 268.6475, 4176
18:00:08.481864, 268.65, 4205
18:00:08.481892, 268.6525, 4201
18:00:08.481916, 268.655, 4146
18:00:08.481941, 268.6575, 4213
18:00:08.493865, 268.66, 4188
18:00:08.493916, 268.6625, 4146
18:00:08.493935, 268.665, 4169
18:00:08.493954, 268.6675, 4165
18:00:08.512614, 268.67, 4151
18:00:08.512693, 268.6725, 4145
18:00:08.512732, 268.675, 4204
18:00:08.512766, 268.6775, 4187
18:00:08.513345, 268.68, 4202
18:00:08.513401, 268.6825, 4197
18:00:08.513432, 268.685, 4172
18:00:08.513461, 268.6875, 4171
18:00:08.519613, 268.69, 4129
18:00:08.519662, 268.6925, 4163
18:00:08.519725, 268.695, 4163
18:00:08.519752, 268.6975, 4155
18:00:08.545867, 268.7, 4168
18:00:08.545988, 268.7025, 4173
18:00:08.546032, 268.705, 4166
18:00:08.546146, 268.7075, 4134
18:00:08.546793, 268.71, 4192
18:00:08.546838, 268.7125, 4201
18:00:08.546892, 268.715, 4198
18:00:08.546933, 268.7175, 4183
18:00:08.546962, 268.72, 4178
18:00:08.547444, 268.7225, 4154
18:00:08.547493, 268.725, 4114
18:00:08.547521, 268.7275, 4175
18:00:08.547547, 268.73, 4186
18:00:08.579384, 268.7325, 4186
18:00:08.579492, 268.735, 4182
18:00:08.579544, 268.7375, 4169
18:00:08.579579, 268.74, 4164
18:00:08.580137, 268.7425, 4165
18:00:08.580180, 268.745, 4165
18:00:08.580205, 268.7475, 4142
18:00:08.580230, 268.75, 4153
18:00:08.580982, 268.7525, 4152
18:00:08.581034, 268.755, 4165
18:00:08.581059, 268.7575, 4145
18:00:08.581083, 268.76, 4126
18:00:08.589782, 268.7625, 4155
18:00:08.589823, 268.765, 4139
18:00:08.589843, 268.7675, 4136
18:00:08.589862, 268.77, 4164
18:00:08.616393, 268.7725, 4159
18:00:08.616463, 268.775, 4177
18:00:08.616486, 268.7775, 4136
18:00:08.616506, 268.78, 4206
18:00:08.616878, 268.7825, 4197
18:00:08.616901, 268.785, 4187
18:00:08.616916, 268.7875, 4225
18:00:08.616931, 268.79, 4202
18:00:08.624551, 268.7925, 4200
18:00:08.624579, 268.795, 4199
18:00:08.624596, 268.7975, 4235
18:00:08.624611, 268.8, 4240
18:00:08.624625, 268.8025, 4218
18:00:08.649909, 268.805, 4231
18:00:08.649994, 268.8075, 4252
18:00:08.650037, 268.81, 4250
18:00:08.650642, 268.8125, 4221
18:00:08.650689, 268.815, 4273
18:00:08.650719, 268.8175, 4268
18:00:08.650747, 268.82, 4283
18:00:08.650774, 268.8225, 4283
18:00:08.651401, 268.825, 4279
18:00:08.651450, 268.8275, 4287
18:00:08.651485, 268.83, 4236
18:00:08.651518, 268.8325, 4283
18:00:08.659567, 268.835, 4270
18:00:08.659593, 268.8375, 4254
18:00:08.659608, 268.84, 4271
18:00:08.659622, 268.8425, 4263
18:00:08.680536, 268.845, 4260
18:00:08.680652, 268.8475, 4225
18:00:08.680685, 268.85, 4280
18:00:08.680712, 268.8525, 4238
18:00:08.686379, 268.855, 4216
18:00:08.686463, 268.8575, 4210
18:00:08.686504, 268.86, 4211
18:00:08.686540, 268.8625, 4226
18:00:08.695529, 268.865, 4164
18:00:08.695580, 268.8675, 4228
18:00:08.695601, 268.87, 4229
18:00:08.695619, 268.8725, 4218
18:00:08.713474, 268.875, 4220
18:00:08.713577, 268.8775, 4224
18:00:08.713603, 268.88, 4213
18:00:08.713623, 268.8825, 4173
18:00:08.713986, 268.885, 4198
18:00:08.714019, 268.8875, 4199
18:00:08.714033, 268.89, 4200
18:00:08.714047, 268.8925, 4216
18:00:08.720954, 268.895, 4221
18:00:08.720991, 268.8975, 4218
18:00:08.721007, 268.9, 4192
18:00:08.721021, 268.9025, 4226
18:00:08.721035, 268.905, 4226
18:00:08.750102, 268.9075, 4203
18:00:08.750194, 268.91, 4200
18:00:08.750232, 268.9125, 4208
18:00:08.750278, 268.915, 4217
18:00:08.750717, 268.9175, 4171
18:00:08.750750, 268.92, 4200
18:00:08.750778, 268.9225, 4185
18:00:08.750802, 268.925, 4179
18:00:08.755805, 268.9275, 4213
18:00:08.755842, 268.93, 4206
18:00:08.755858, 268.9325, 4213
18:00:08.755872, 268.935, 4161
18:00:08.787690, 268.9375, 4206
18:00:08.787797, 268.94, 4207
18:00:08.787828, 268.9425, 4190
18:00:08.787856, 268.945, 4170
18:00:08.788773, 268.9475, 4163
18:00:08.788833, 268.95, 4179
18:00:08.788872, 268.9525, 4177
18:00:08.788910, 268.955, 4228
18:00:08.791107, 268.9575, 4224
18:00:08.791127, 268.96, 4202
18:00:08.791141, 268.9625, 4194
18:00:08.791154, 268.965, 4178
18:00:08.813896, 268.9675, 4158
18:00:08.813983, 268.97, 4150
18:00:08.814006, 268.9725, 4155
18:00:08.814025, 268.975, 4180
18:00:08.814065, 268.9775, 4176
18:00:08.814479, 268.98, 4157
18:00:08.814518, 268.9825, 4182
18:00:08.814534, 268.985, 4157
18:00:08.814550, 268.9875, 4145
18:00:08.817467, 268.99, 4212
18:00:08.817517, 268.9925, 4190
18:00:08.817540, 268.995, 4177
18:00:08.817561, 268.9975, 4184
18:00:08.826431, 269.0, 4158
18:00:08.826502, 269.0025, 4164
18:00:08.826557, 269.005, 4146
18:00:08.826609, 269.0075, 4173
18:00:08.847798, 269.01, 4167
18:00:08.847860, 269.0125, 4184
18:00:08.847883, 269.015, 4194
18:00:08.847903, 269.0175, 4203
18:00:08.852223, 269.02, 4201
18:00:08.852290, 269.0225, 4160
18:00:08.852308, 269.025, 4204
18:00:08.852323, 269.0275, 4194
18:00:08.861570, 269.03, 4174
18:00:08.861641, 269.0325, 4178
18:00:08.861687, 269.035, 4185
18:00:08.861728, 269.0375, 4151
18:00:08.884181, 269.04, 4131
18:00:08.884270, 269.0425, 4186
18:00:08.884313, 269.045, 4190
18:00:08.884351, 269.0475, 4190
18:00:08.884996, 269.05, 4205
18:00:08.885033, 269.0525, 4204
18:00:08.885065, 269.055, 4212
18:00:08.885095, 269.0575, 4150
18:00:08.887301, 269.06, 4189
18:00:08.887330, 269.0625, 4186
18:00:08.887355, 269.065, 4170
18:00:08.887378, 269.0675, 4185
18:00:08.887399, 269.07, 4191
18:00:08.915307, 269.0725, 4200
18:00:08.915427, 269.075, 4167
18:00:08.915463, 269.0775, 4202
18:00:08.915497, 269.08, 4205
18:00:08.916078, 269.0825, 4201
18:00:08.916125, 269.085, 4199
18:00:08.916148, 269.0875, 4226
18:00:08.916177, 269.09, 4216
18:00:08.922570, 269.0925, 4193
18:00:08.922635, 269.095, 4188
18:00:08.922671, 269.0975, 4172
18:00:08.922705, 269.1, 4164
18:00:08.948593, 269.1025, 4176
18:00:08.948704, 269.105, 4179
18:00:08.948740, 269.1075, 4160
18:00:08.948771, 269.11, 4153
18:00:08.949390, 269.1125, 4188
18:00:08.949454, 269.115, 4201
18:00:08.949478, 269.1175, 4192
18:00:08.949501, 269.12, 4199
18:00:08.949901, 269.1225, 4187
18:00:08.949939, 269.125, 4164
18:00:08.949962, 269.1275, 4118
18:00:08.949984, 269.13, 4184
18:00:08.981469, 269.1325, 4175
18:00:08.981560, 269.135, 4181
18:00:08.981588, 269.1375, 4190
18:00:08.981609, 269.14, 4204
18:00:08.981927, 269.1425, 4182
18:00:08.981956, 269.145, 4151
18:00:08.981971, 269.1475, 4194
18:00:08.981985, 269.15, 4190
18:00:08.981999, 269.1525, 4186
18:00:08.983504, 269.155, 4217
18:00:08.983574, 269.1575, 4214
18:00:08.983600, 269.16, 4195
18:00:08.983623, 269.1625, 4137
18:00:08.992456, 269.165, 4195
18:00:08.992506, 269.1675, 4157
18:00:08.992537, 269.17, 4151
18:00:08.992568, 269.1725, 4153
18:00:09.016308, 269.175, 4137
18:00:09.016405, 269.1775, 4164
18:00:09.016431, 269.18, 4149
18:00:09.016455, 269.1825, 4179
18:00:09.016881, 269.185, 4184
18:00:09.016909, 269.1875, 4142
18:00:09.016927, 269.19, 4150
18:00:09.016943, 269.1925, 4153
18:00:09.018720, 269.195, 4168
18:00:09.018746, 269.1975, 4122
18:00:09.018762, 269.2, 4167
18:00:09.018778, 269.2025, 4169
18:00:09.051543, 269.205, 4157
18:00:09.051604, 269.2075, 4165
18:00:09.051628, 269.21, 4151
18:00:09.051649, 269.2125, 4148
18:00:09.052019, 269.215, 4109
18:00:09.052045, 269.2175, 4133
18:00:09.052061, 269.22, 4131
18:00:09.052076, 269.2225, 4117
18:00:09.053358, 269.225, 4166
18:00:09.053381, 269.2275, 4142
18:00:09.053398, 269.23, 4148
18:00:09.053413, 269.2325, 4113
18:00:09.062568, 269.235, 4156
18:00:09.062624, 269.2375, 4117
18:00:09.062660, 269.24, 4109
18:00:09.062694, 269.2425, 4141
18:00:09.084621, 269.245, 4136
18:00:09.084726, 269.2475, 4125
18:00:09.084770, 269.25, 4100
18:00:09.084806, 269.2525, 4151
18:00:09.085460, 269.255, 4121
18:00:09.085500, 269.2575, 4122
18:00:09.085527, 269.26, 4140
18:00:09.085553, 269.2625, 4149
18:00:09.097575, 269.265, 4119
18:00:09.097641, 269.2675, 4094
18:00:09.097662, 269.27, 4159
18:00:09.097681, 269.2725, 4127
18:00:09.097699, 269.275, 4135
18:00:09.119366, 269.2775, 4129
18:00:09.119448, 269.28, 4122
18:00:09.119482, 269.2825, 4111
18:00:09.120106, 269.285, 4091
18:00:09.120157, 269.2875, 4137
18:00:09.120189, 269.29, 4146
18:00:09.120221, 269.2925, 4146
18:00:09.120252, 269.295, 4172
18:00:09.123768, 269.2975, 4167
18:00:09.123837, 269.3, 4140
18:00:09.123877, 269.3025, 4128
18:00:09.123914, 269.305, 4162
18:00:09.133203, 269.3075, 4148
18:00:09.133263, 269.31, 4121
18:00:09.133458, 269.3125, 4119
18:00:09.149184, 269.315, 4122
18:00:09.149946, 269.3175, 4125
18:00:09.150016, 269.32, 4061
18:00:09.150043, 269.3225, 4112
18:00:09.150066, 269.325, 4104
18:00:09.158811, 269.3275, 4126
18:00:09.158930, 269.33, 4136
18:00:09.158979, 269.3325, 4112
18:00:09.159022, 269.335, 4103
18:00:09.186023, 269.3375, 4073
18:00:09.186136, 269.34, 4125
18:00:09.186171, 269.3425, 4104
18:00:09.186199, 269.345, 4111
18:00:09.186523, 269.3475, 4124
18:00:09.186574, 269.35, 4148
18:00:09.186593, 269.3525, 4141
18:00:09.186608, 269.355, 4139
18:00:09.186904, 269.3575, 4180
18:00:09.186927, 269.36, 4183
18:00:09.186942, 269.3625, 4180
18:00:09.186956, 269.365, 4193
18:00:09.193974, 269.3675, 4192
18:00:09.194054, 269.37, 4198
18:00:09.194109, 269.3725, 4132
18:00:09.194160, 269.375, 4193
18:00:09.194212, 269.3775, 4212
18:00:09.219248, 269.38, 4169
18:00:09.219338, 269.3825, 4164
18:00:09.219386, 269.385, 4172
18:00:09.219421, 269.3875, 4168
18:00:09.219889, 269.39, 4145
18:00:09.219919, 269.3925, 4175
18:00:09.219938, 269.395, 4156
18:00:09.219957, 269.3975, 4144
18:00:09.228893, 269.4, 4185
18:00:09.228974, 269.4025, 4179
18:00:09.229024, 269.405, 4173
18:00:09.229070, 269.4075, 4120
18:00:09.254825, 269.41, 4191
18:00:09.254943, 269.4125, 4185
18:00:09.255008, 269.415, 4181
18:00:09.255055, 269.4175, 4202
18:00:09.255741, 269.42, 4242
18:00:09.255788, 269.4225, 4301
18:00:09.255822, 269.425, 4321
18:00:09.255853, 269.4275, 4388
18:00:09.256409, 269.43, 4415
18:00:09.256450, 269.4325, 4469
18:00:09.256482, 269.435, 4466
18:00:09.256514, 269.4375, 4349
18:00:09.286778, 269.44, 4152
18:00:09.286912, 269.4425, 3873
18:00:09.286969, 269.445, 3630
18:00:09.287054, 269.4475, 3330
18:00:09.288120, 269.45, 2929
18:00:09.288189, 269.4525, 2502
18:00:09.288237, 269.455, 2007
18:00:09.288282, 269.4575, 1759
18:00:09.290201, 269.46, 1683
18:00:09.290263, 269.4625, 1858
18:00:09.290309, 269.465, 2349
18:00:09.290353, 269.4675, 3194
18:00:09.299562, 269.47, 4138
18:00:09.299620, 269.4725, 4732
18:00:09.299648, 269.475, 4984
18:00:09.299677, 269.4775, 4967
18:00:09.324263, 269.48, 4911
18:00:09.324388, 269.4825, 4747
18:00:09.324446, 269.485, 4618
18:00:09.324484, 269.4875, 4575
18:00:09.324550, 269.49, 4588
18:00:09.325410, 269.4925, 4534
18:00:09.325476, 269.495, 4437
18:00:09.325520, 269.4975, 4474
18:00:09.325562, 269.5, 4484
18:00:09.333561, 269.5025, 4481
18:00:09.333632, 269.505, 4504
18:00:09.334438, 269.5075, 4517
18:00:09.334496, 269.51, 4512
18:00:09.355772, 269.5125, 4482
18:00:09.355833, 269.515, 4465
18:00:09.355860, 269.5175, 4473
18:00:09.355888, 269.52, 4454
18:00:09.356244, 269.5225, 4469
18:00:09.356269, 269.525, 4418
18:00:09.356284, 269.5275, 4428
18:00:09.356298, 269.53, 4380
18:00:09.359650, 269.5325, 4435
18:00:09.359721, 269.535, 4405
18:00:09.359764, 269.5375, 4387
18:00:09.359804, 269.54, 4373
18:00:09.390110, 269.5425, 4361
18:00:09.390235, 269.545, 4359
18:00:09.390267, 269.5475, 4318
18:00:09.390316, 269.55, 4338
18:00:09.390608, 269.5525, 4335
18:00:09.390630, 269.555, 4332
18:00:09.390646, 269.5575, 4345
18:00:09.390660, 269.56, 4320
18:00:09.394978, 269.5625, 4321
18:00:09.395052, 269.565, 4276
18:00:09.395096, 269.5675, 4311
18:00:09.395136, 269.57, 4295
18:00:09.395177, 269.5725, 4267
18:00:09.420806, 269.575, 4287
18:00:09.420898, 269.5775, 4278
18:00:09.420931, 269.58, 4286
18:00:09.420966, 269.5825, 4250
18:00:09.421541, 269.585, 4285
18:00:09.421585, 269.5875, 4263
18:00:09.421610, 269.59, 4253
18:00:09.421633, 269.5925, 4263
18:00:09.422036, 269.595, 4247
18:00:09.422067, 269.5975, 4230
18:00:09.422091, 269.6, 4201
18:00:09.422113, 269.6025, 4250
18:00:09.429539, 269.605, 4227
18:00:09.429564, 269.6075, 4225
18:00:09.429580, 269.61, 4212
18:00:09.429594, 269.6125, 4209
18:00:09.455232, 269.615, 4232
18:00:09.455440, 269.6175, 4177
18:00:09.455487, 269.62, 4232
18:00:09.455522, 269.6225, 4213
18:00:09.456178, 269.625, 4204
18:00:09.456222, 269.6275, 4199
18:00:09.456253, 269.63, 4204
18:00:09.456283, 269.6325, 4213
18:00:09.464528, 269.635, 4165
18:00:09.464552, 269.6375, 4204
18:00:09.464566, 269.64, 4183
18:00:09.464610, 269.6425, 4187
18:00:09.486712, 269.645, 4185
18:00:09.486778, 269.6475, 4174
18:00:09.486802, 269.65, 4193
18:00:09.486821, 269.6525, 4131
18:00:09.487365, 269.655, 4197
18:00:09.487408, 269.6575, 4191
18:00:09.487435, 269.66, 4165
18:00:09.487475, 269.6625, 4195
18:00:09.487508, 269.665, 4199
18:00:09.491240, 269.6675, 4203
18:00:09.491285, 269.67, 4188
18:00:09.491318, 269.6725, 4235
18:00:09.491349, 269.675, 4217
18:00:09.522564, 269.6775, 4196
18:00:09.522616, 269.68, 4203
18:00:09.522639, 269.6825, 4197
18:00:09.522668, 269.685, 4207
18:00:09.528250, 269.6875, 4190
18:00:09.528289, 269.69, 4211
18:00:09.528315, 269.6925, 4198
18:00:09.528339, 269.695, 4188
18:00:09.529476, 269.6975, 4197
18:00:09.529509, 269.7, 4186
18:00:09.529534, 269.7025, 4172
18:00:09.529558, 269.705, 4150
18:00:09.551999, 269.7075, 4191
18:00:09.552161, 269.71, 4204
18:00:09.552204, 269.7125, 4200
18:00:09.552238, 269.715, 4187
18:00:09.552963, 269.7175, 4209
18:00:09.553025, 269.72, 4185
18:00:09.553054, 269.7225, 4140
18:00:09.553078, 269.725, 4187
18:00:09.560924, 269.7275, 4184
18:00:09.560956, 269.73, 4164
18:00:09.560972, 269.7325, 4188
18:00:09.560987, 269.735, 4202
18:00:09.588305, 269.7375, 4184
18:00:09.588406, 269.74, 4141
18:00:09.588467, 269.7425, 4152
18:00:09.588528, 269.745, 4101
18:00:09.588582, 269.7475, 4108
18:00:09.589238, 269.75, 4108
18:00:09.589279, 269.7525, 4109
18:00:09.589308, 269.755, 4119
18:00:09.589336, 269.7575, 4096
18:00:09.589815, 269.76, 4122
18:00:09.589849, 269.7625, 4126
